# name: sodium hydroxide
# temperature: 20°C
# reference: CRC handbook 90th edition 2009, p. 8-61
#! concentration [M], density [g/cm^3], refractive index, viscosity [mPa*s]
0.000,	0.9982,	1.3339,	1.0016
0.125,	1.0039,	1.3344,	1.027
0.252,	1.0095,	1.3358,	1.054
0.510,	1.0207,	1.3386,	1.112
0.774,	1.0318,	1.3414,	1.176
1.043,	1.0428,	1.3441,	1.248
1.317,	1.0538,	1.3467,	1.329
1.597,	1.0648,	1.3494,	1.416
1.883,	1.0758,	1.3520,	1.510
2.174,	1.0869,	1.3546,	1.616
2.470,	1.0979,	1.3572,	1.737
2.772,	1.1089,	1.3597,	1.882
3.393,	1.1309,	1.3648,	2.201