# "wavelength [nm]", "intensity/spectrum"
402.317, 0.120702
406.95, 0.140629
410.425, 0.160607
415.058, 0.187246
419.691, 0.213884
422.008, 0.240626
425.483, 0.267316
427.799, 0.294058
430.116, 0.327512
432.432, 0.360965
434.749, 0.387707
435.907, 0.421212
438.224, 0.454666
442.857, 0.548418
445.174, 0.581871
446.332, 0.608665
448.649, 0.642119
450.965, 0.675572
452.124, 0.709077
454.44, 0.735819
456.757, 0.769273
459.073, 0.802726
460.232, 0.82952
462.548, 0.862973
464.865, 0.896427
467.181, 0.923169
469.498, 0.956622
471.815, 0.990075
477.606, 0.996528
483.398, 0.962712
484.556, 0.929103
486.873, 0.895442
488.031, 0.868544
490.347, 0.834884
491.506, 0.801275
492.664, 0.767666
493.822, 0.734057
496.139, 0.673551
497.297, 0.639942
498.456, 0.606333
499.614, 0.572724
503.089, 0.445052
504.247, 0.411443
505.405, 0.377834
506.564, 0.344225
507.722, 0.277059
507.722, 0.310616
508.88, 0.243451
510.039, 0.216553
511.197, 0.182944
512.355, 0.149335
514.672, 0.115675


