# "wavelength [nm]", "intensity/spectrum"
379, 0
380, -0.378518
381, -0.498051
382, -0.461342
383, -0.45632
384, -0.436835
385, -0.43303
386, -0.414902
387, -0.294309
388, -0.321704
389, -0.174427
390, -0.101188
391, 0.0143816
392, 0.157483
393, 0.399222
394, 0.824001
395, 1.31696
396, 2.08991
397, 3.0139
398, 4.46823
399, 6.21143
400, 8.567
401, 11.5046
402, 14.8875
403, 19.1455
404, 24.0453
405, 28.9263
406, 35.0919
407, 41.0615
408, 47.5343
409, 54.269
410, 60.3744
411, 67.0948
412, 73.1458
413, 78.387
414, 83.3784
415, 87.4056
416, 91.413
417, 93.9903
418, 96.2973
419, 98.0377
420, 99.2964
421, 99.7095
422, 100
423, 99.331
424, 98.8795
425, 98.5033
426, 97.775
427, 96.8286
428, 96.3312
429, 95.4123
430, 94.6737
431, 93.8243
432, 93.7133
433, 93.2115
434, 92.4073
435, 91.8007
436, 90.9172
437, 90.0576
438, 89.1786
439, 88.2591
440, 86.9924
441, 85.6341
442, 84.7748
443, 82.7022
444, 81.2451
445, 79.4356
446, 77.4644
447, 75.5577
448, 73.5576
449, 71.4215
450, 69.6163
451, 67.3014
452, 64.9699
453, 63.0189
454, 60.5633
455, 58.6457
456, 56.6065
457, 54.7412
458, 53.0853
459, 51.1873
460, 49.325
461, 47.8194
462, 45.9042
463, 44.1256
464, 42.6779
465, 41.2614
466, 39.8747
467, 38.6082
468, 37.3659
469, 35.8483
470, 34.5643
471, 33.4742
472, 32.3227
473, 31.0257
474, 29.754
475, 28.6276
476, 27.4509
477, 26.4021
478, 25.1514
479, 24.3539
480, 23.2652
481, 22.3725
482, 21.3759
483, 20.5166
484, 19.5088
485, 18.7965
486, 17.8367
487, 17.1176
488, 16.2882
489, 15.5839
490, 14.8309
491, 14.1472
492, 13.5008
493, 12.8729
494, 12.3154
495, 11.8084
496, 11.2935
497, 10.8896
498, 10.2558
499, 9.76676
500, 9.31788
501, 8.85836
502, 8.45476
503, 7.87042
504, 7.47371
505, 7.02943
506, 6.73086
507, 6.36176
508, 5.94929
509, 5.66855
510, 5.32741
511, 5.17793
512, 4.92414
513, 4.53967
514, 4.40724
515, 4.0939
516, 3.98411
517, 3.76937
518, 3.44979
519, 3.33559
520, 3.14317
521, 2.9491
522, 2.7806
523, 2.50362
524, 2.46511
525, 2.21019
526, 2.14251
527, 1.99195
528, 1.78519
529, 1.71391
530, 1.55867
531, 1.45721
532, 1.38279
533, 1.16498
534, 1.20181
535, 1.0085
536, 0.95778
537, 0.818559
538, 0.647969
539, 0.712114
540, 0.597933
541, 0.572278
542, 0.546295
543, 0.275197
544, 0.369773
545, 0.186313
546, 0.250404
547, 0.157746
548, 0.0636116
549, -0.0321
550, -0.129262
551, -0.130276
552, -0.196996
553, -0.26478
554, -0.300377
555, -0.336536
556, -0.373359
557, -0.342257
558, -0.552258
559, -0.522038
560, -0.666898
561, -0.637161
562, -0.678451
563, -0.720337
564, -0.726684
565, -0.842885
566, -0.924214
567, -0.857641
568, -1.01579
569, -0.835026
570, -0.880922
571, -1.12066
572, -1.01384
573, -1.18018
574, -1.07172
575, -1.12133
576, -1.25288
577, -1.14197
578, -1.19377
579, -1.24623
580, -1.25778
581, -1.39612
582, -1.19547
583, -1.33548
584, -1.39128
585, -1.31629
586, -1.55011
587, -1.38566
588, -1.62422
589, -1.50247
590, -1.56227
591, -1.57632
592, -1.49726
593, -1.55822
594, -1.62066
595, -1.58766
596, -1.79686
597, -1.61732
598, -1.83025
599, -1.59746
600, -1.81405
601, 0


