# "wavelength [nm]", "intensity/spectrum"
605, 2.74312
606, 1.79977
607, 1.92149
608, 2.09104
609, 2.32578
610, 2.71269
611, 3.2561
612, 3.86471
613, 4.35161
614, 5.05586
615, 5.89488
616, 6.79911
617, 8.00331
618, 9.15098
619, 10.29
620, 12.3549
621, 13.9112
622, 15.8848
623, 17.9716
624, 21.0278
625, 23.71
626, 26.7661
627, 30.3874
628, 34.2476
629, 37.7472
630, 42.4423
631, 46.5983
632, 50.4848
633, 55.6275
634, 59.7575
635, 65.3437
636, 69.43
637, 74.1251
638, 78.5245
639, 83.6238
640, 86.5495
641, 90.1883
642, 93.2834
643, 95.4136
644, 97.9742
645, 98.9957
646, 99.9566
647, 99.9695
648, 100
649, 99.6131
650, 97.8916
651, 97.0612
652, 95.0181
653, 92.5314
654, 89.7187
655, 86.98
656, 83.4891
657, 80.2113
658, 76.6769
659, 73.4991
660, 70.4212
661, 67.6042
662, 63.5264
663, 60.2313
664, 56.81
665, 54.1495
666, 51.002
667, 48.0893
668, 45.4419
669, 42.8379
670, 40.2556
671, 37.8646
672, 35.7867
673, 34.013
674, 31.8828
675, 30.2047
676, 28.5789
677, 26.753
678, 25.1533
679, 24.2272
680, 22.684
681, 21.8666
682, 20.8494
683, 19.5713
684, 18.7975
685, 18.1454
686, 17.2065
687, 16.3109
688, 15.7284
689, 15.0806
690, 14.3981
691, 13.9417
692, 13.4678
693, 13.1461
694, 12.7027
695, 12.3636
696, 12.1288
697, 11.9202
698, 11.7637
699, 11.4681
700, 11.4072
701, 11.0768
702, 10.7812
703, 10.7551
704, 10.6508
705, 10.5378
706, 10.3986
707, 10.1465
708, 9.96826
709, 9.90741
710, 9.85959
711, 9.79872
712, 9.57701
713, 9.44225
714, 9.41182
715, 9.05968
716, 8.70756
717, 8.37717
718, 8.50758
719, 8.23805
720, 8.12938
721, 7.82071
722, 7.52944
723, 7.42077
724, 7.0556
725, 6.91649
726, 6.75129
727, 6.32526
728, 5.87314
729, 5.89488
730, 5.63839
731, 5.52972
732, 5.2341
733, 4.93849
734, 4.62114
735, 4.5081
736, 4.48636
737, 4.00817
738, 3.98643
739, 3.77777
740, 3.643
741, 3.47781
742, 3.29522
743, 2.9996
744, 2.94744
745, 2.8605
746, 2.57358
747, 2.5301
748, 2.36491
749, 2.38665
750, 2.14755
751, 2.23884
752, 1.93887
753, 1.93887
754, 1.82151
755, 1.63022
756, 1.66935
757, 1.63457
758, 1.56935
759, 1.52155
760, 1.47373
761, 1.29114
762, 1.21288
763, 1.20419
764, 1.27375
765, 1.11725
766, 1.09986
767, 0.986828
768, 0.991175
769, 1.06073
770, 1.04769
771, 0.869452
772, 0.886841
773, 0.886841
774, 0.812938
775, 0.895535


