# "wavelength [nm]", "intensity/spectrum"
535, 1.9275
536, 2.08085
537, 2.31837
538, 2.50631
539, 3.04739
540, 3.72419
541, 4.2931
542, 5.43064
543, 6.47603
544, 7.932
545, 9.58958
546, 11.6085
547, 14.005
548, 16.6901
549, 19.6149
550, 23.7369
551, 27.5258
552, 32.1489
553, 37.1729
554, 42.4312
555, 48.5802
556, 54.5079
557, 60.0284
558, 66.7423
559, 72.594
560, 77.9765
561, 82.7088
562, 87.2909
563, 91.2897
564, 94.8252
565, 97.0365
566, 98.8751
567, 99.6916
568, 100
569, 99.2276
570, 97.8575
571, 96.4585
572, 94.812
573, 92.6532
574, 88.8992
575, 86.2177
576, 83.614
577, 79.9193
578, 76.7762
579, 73.8358
580, 70.4718
581, 68.0865
582, 65.0482
583, 62.7985
584, 59.7246
585, 57.2442
586, 54.9139
587, 52.342
588, 50.8911
589, 48.8486
590, 47.4361
591, 46.2682
592, 45.2178
593, 43.6967
594, 43.198
595, 42.4468
596, 41.7669
597, 41.4671
598, 41.3506
599, 40.8278
600, 40.539
601, 40.7257
602, 40.207
603, 40.7323
604, 40.2825
605, 40.6373
606, 40.8422
607, 40.1728
608, 40.1518
609, 40.3593
610, 39.8332
611, 39.9317
612, 39.3214
613, 38.4111
614, 38.4134
615, 37.6687
616, 36.8599
617, 35.8956
618, 35.1451
619, 34.1833
620, 33.8057
621, 32.8155
622, 31.436
623, 30.6036
624, 29.0931
625, 28.9318
626, 27.3416
627, 26.43
628, 25.4586
629, 24.2804
630, 23.4315
631, 22.5589
632, 21.6464
633, 21.1708
634, 20.0108
635, 19.4512
636, 18.7316
637, 18.1561
638, 17.2761
639, 16.8104
640, 15.847
641, 15.2793
642, 14.8201
643, 14.5337
644, 13.9089
645, 13.725
646, 13.1684
647, 12.7525
648, 12.2696
649, 12.0442
650, 11.9976
651, 11.5031
652, 11.2051
653, 10.864
654, 10.8032
655, 10.3378
656, 10.3766
657, 9.94934
658, 9.63594
659, 9.53867
660, 9.51926
661, 9.08892
662, 8.83608
663, 9.11026
664, 8.62073
665, 8.44687
666, 8.40528
667, 8.09743
668, 7.66771
669, 7.77628
670, 7.69208
671, 7.37919
672, 7.15202
673, 6.85026
674, 6.74657
675, 6.73494
676, 6.51255
677, 6.12571
678, 6.18834
679, 5.91637
680, 5.93284
681, 5.56106
682, 5.11974
683, 5.20056
684, 5.26763
685, 4.92635
686, 4.71918
687, 4.66607
688, 4.40008
689, 4.32399
690, 4.14585
691, 3.8432
692, 3.92708
693, 3.71626
694, 3.46461
695, 3.54371
696, 3.10222
697, 3.10529
698, 3.12713
699, 2.90477
700, 2.84754
701, 2.88388
702, 2.68747
703, 2.54394
704, 2.47668
705, 2.34617
706, 2.17153
707, 2.21983
708, 1.99616
709, 1.82979
710, 2.11163
711, 1.85452
712, 1.92233
713, 1.81239
714, 1.6543
715, 1.58348
716, 1.55719
717, 1.43552
718, 1.52509
719, 1.2545
720, 1.51457
721, 1.18722
722, 1.30251
723, 1.2935
724, 1.30979


