# "wavelength [nm]", "intensity/spectrum"
300, 11.9055
301, 10.7866
302, 9.73277
303, 9.04795
304, 8.52343
305, 8.09613
306, 7.83139
307, 7.70274
308, 7.68239
309, 7.646
310, 7.7977
311, 7.82008
312, 8.04843
313, 8.2883
314, 8.46217
315, 8.72239
316, 8.97312
317, 9.265
318, 9.47978
319, 9.72169
320, 9.98395
321, 10.1262
322, 10.3771
323, 10.3387
324, 10.5037
325, 10.6122
326, 10.6916
327, 10.6755
328, 10.8429
329, 10.7705
330, 10.9062
331, 11.0375
332, 11.1548
333, 11.3199
334, 11.3473
335, 11.3224
336, 11.2317
337, 11.0285
338, 10.6803
339, 10.2731
340, 9.78929
341, 9.33033
342, 8.82616
343, 8.38756
344, 7.90396
345, 7.56913
346, 7.24831
347, 7.06269
348, 6.74188
349, 6.62183
350, 6.45678
351, 6.41157
352, 6.26235
353, 6.25557
354, 6.11788
355, 6.09731
356, 6.01162
357, 5.98879
358, 5.85992
359, 5.8918
360, 5.85336
361, 5.72901
362, 5.65893
363, 5.64061
364, 5.5547
365, 5.57053
366, 5.54114
367, 5.45771
368, 5.37858
369, 5.42357
370, 5.38288
371, 5.4394
372, 5.36931
373, 5.3467
374, 5.34241
375, 5.33336
376, 5.27006
377, 5.1681
378, 5.05053
379, 5.00554
380, 4.83349
381, 4.74531
382, 4.57824
383, 4.37928
384, 4.29111
385, 4.18688
386, 4.01302
387, 3.85702
388, 3.68271
389, 3.59929
390, 3.44984
391, 3.38428
392, 3.2579
393, 3.15367
394, 2.9979
395, 2.98637
396, 2.8055
397, 2.80776
398, 2.71755
399, 2.65402
400, 2.5862
401, 2.58393
402, 2.51859
403, 2.47564
404, 2.38747
405, 2.31037
406, 2.24028
407, 2.18173
408, 2.08202
409, 2.07321
410, 2.0099
411, 1.97147
412, 1.90342
413, 1.84916
414, 1.78585
415, 1.78156
416, 1.67982
417, 1.72255
418, 1.6459
419, 1.68886
420, 1.58034
421, 1.5939
422, 1.56203
423, 1.52811
424, 1.58034
425, 1.50098
426, 1.57333
427, 1.52608
428, 1.52811
429, 1.52382
430, 1.55524
431, 1.51025
432, 1.6459
433, 1.53264
434, 1.58916
435, 1.57559
436, 1.68411
437, 1.5869
438, 1.68886
439, 1.6459
440, 1.77251
441, 1.77907
442, 1.83785
443, 1.8062
444, 1.85594
445, 1.91269
446, 2.00742
447, 2.00742
448, 2.04359
449, 2.03025
450, 2.10463
451, 2.17268
452, 2.23802
453, 2.23802
454, 2.33999
455, 2.3332
456, 2.45054
457, 2.49599
458, 2.54573
459, 2.57738
460, 2.70376
461, 2.71959
462, 2.81929
463, 2.87785
464, 2.99089
465, 3.02254
466, 3.15819
467, 3.22172
468, 3.34132
469, 3.44329
470, 3.54932
471, 3.63523
472, 3.75054
473, 3.84798
474, 3.93141
475, 4.02207
476, 4.11001
477, 4.22532
478, 4.40189
479, 4.49662
480, 4.59406
481, 4.7365
482, 4.87192
483, 4.99876
484, 5.13644
485, 5.26079
486, 5.41023
487, 5.57957
488, 5.74009
489, 5.90084
490, 6.05209
491, 6.23748
492, 6.3824
493, 6.59017
494, 6.74391
495, 6.95666
496, 7.13527
497, 7.34553
498, 7.54674
499, 7.74773
500, 7.98083
501, 8.16622
502, 8.38756
503, 8.63874
504, 8.849
505, 9.10447
506, 9.32355
507, 9.60186
508, 9.83451
509, 10.0448
510, 10.314
511, 10.5286
512, 10.8858
513, 11.1616
514, 11.4128
515, 11.6952
516, 12.0504
517, 12.3375
518, 12.5998
519, 12.9479
520, 13.2735
521, 13.5966
522, 13.9111
523, 14.2818
524, 14.6298
525, 14.9804
526, 15.3171
527, 15.6813
528, 16.0521
529, 16.4477
530, 16.8976
531, 17.2277
532, 17.6483
533, 18.0326
534, 18.5029
535, 18.9277
536, 19.4025
537, 19.8142
538, 20.2706
539, 20.7456
540, 21.1797
541, 21.65
542, 22.1609
543, 22.6151
544, 23.1534
545, 23.585
546, 24.1663
547, 24.6182
548, 25.1611
549, 25.6449
550, 26.1602
551, 26.6736
552, 27.1755
553, 27.6819
554, 28.22
555, 28.688
556, 29.2284
557, 29.7077
558, 30.2661
559, 30.7024
560, 31.2765
561, 31.8349
562, 32.3619
563, 32.8862
564, 33.4042
565, 33.9694
566, 34.5095
567, 35.1312
568, 35.6852
569, 36.2596
570, 36.8857
571, 37.5458
572, 38.1088
573, 38.837
574, 39.4723
575, 40.2024
576, 40.8514
577, 41.6561
578, 42.366
579, 43.1439
580, 43.9104
581, 44.7333
582, 45.5269
583, 46.3451
584, 47.1635
585, 48.0184
586, 48.8662
587, 49.7095
588, 50.5505
589, 51.3778
590, 52.1872
591, 53.0802
592, 53.8582
593, 54.6811
594, 55.4541
595, 56.2771
596, 56.996
597, 57.7491
598, 58.4273
599, 59.1009
600, 59.7542
601, 60.4033
602, 60.9615
603, 61.4953
604, 62.0538
605, 62.5577
606, 63.0144
607, 63.4553
608, 63.8374
609, 64.1697
610, 64.5179
611, 64.7914
612, 65.0765
613, 65.2936
614, 65.49
615, 65.696
616, 65.8721
617, 66.0168
618, 66.2115
619, 66.374
620, 66.5009
621, 66.6702
622, 66.8556
623, 67.0661
624, 67.2558
625, 67.4999
626, 67.8413
627, 68.1149
628, 68.4836
629, 68.8861
630, 69.3383
631, 69.8696
632, 70.4099
633, 71.0701
634, 71.7413
635, 72.5597
636, 73.3691
637, 74.2283
638, 75.171
639, 76.1975
640, 77.303
641, 78.3184
642, 79.5074
643, 80.6991
644, 81.9606
645, 83.2018
646, 84.5063
647, 85.7611
648, 87.0631
649, 88.3337
650, 89.6317
651, 90.8297
652, 92.0124
653, 93.1586
654, 94.2323
655, 95.3492
656, 96.2289
657, 97.1443
658, 97.9313
659, 98.5576
660, 99.0979
661, 99.5478
662, 99.8417
663, 100
664, 99.9367
665, 99.8053
666, 99.4707
667, 98.9259
668, 98.1506
669, 97.2666
670, 96.1452
671, 94.8543
672, 93.3463
673, 91.6687
674, 89.8553
675, 87.8024
676, 85.6368
677, 83.2626
678, 80.7601
679, 78.1307
680, 75.49
681, 72.5801
682, 69.6885
683, 66.6318
684, 63.5095
685, 60.4483
686, 57.3218
687, 54.3013
688, 51.267
689, 48.3347
690, 45.3935
691, 42.5132
692, 39.7278
693, 37.0937
694, 34.4439
695, 31.8758
696, 29.5469
697, 27.2727
698, 25.2199
699, 23.1871
700, 21.3875
701, 19.5971
702, 18.0618
703, 16.556
704, 15.1769
705, 13.8997
706, 12.794
707, 11.6932
708, 10.7524
709, 9.85259
710, 9.06129
711, 8.33556
712, 7.65753
713, 7.06269
714, 6.52009
715, 5.98675
716, 5.55945
717, 5.14119
718, 4.75006
719, 4.40392
720, 4.10097
721, 3.83645
722, 3.51111
723, 3.28955
724, 3.10642
725, 2.88689
726, 2.73089
727, 2.5568
728, 2.41912
729, 2.27442
730, 2.13425
731, 2.02776
732, 1.92399
733, 1.86046
734, 1.75194
735, 1.68886
736, 1.58916
737, 1.52608
738, 1.48312
739, 1.4309
740, 1.38116
741, 1.29999
742, 1.27038
743, 1.26382
744, 1.19577
745, 1.17791
746, 1.1709
747, 1.13495
748, 1.09425
749, 1.06238
750, 1.02869


