# "wavelength [nm]", "intensity/spectrum"
300, 52.2036
301, 44.4513
302, 37.6193
303, 31.7401
304, 27.328
305, 23.663
306, 20.6037
307, 18.7956
308, 17.61
309, 16.5056
310, 15.8457
311, 15.5745
312, 15.3092
313, 14.9308
314, 14.6217
315, 14.3515
316, 13.9618
317, 13.88
318, 13.7993
319, 13.9834
320, 13.8156
321, 13.8156
322, 14.1837
323, 14.449
324, 14.3136
325, 14.2535
326, 14.6975
327, 14.286
328, 14.6547
329, 14.8436
330, 14.9735
331, 15.1793
332, 15.3801
333, 15.51
334, 15.4938
335, 15.8457
336, 16.0942
337, 16.3437
338, 16.7552
339, 17.237
340, 17.8374
341, 18.2921
342, 18.7035
343, 19.4073
344, 19.7868
345, 20.3114
346, 20.7716
347, 21.216
348, 21.7893
349, 22.3902
350, 22.8287
351, 23.4675
352, 23.8579
353, 24.2747
354, 24.756
355, 25.482
356, 25.9962
357, 26.602
358, 27.2733
359, 27.799
360, 28.3945
361, 28.99
362, 29.5037
363, 29.9536
364, 30.4349
365, 30.7657
366, 31.2253
367, 31.5176
368, 31.7017
369, 31.994
370, 32.2484
371, 32.2809
372, 32.276
373, 32.5895
374, 32.5034
375, 32.7411
376, 32.9744
377, 33.4616
378, 33.7913
379, 34.3976
380, 34.9504
381, 36.0006
382, 36.9697
383, 37.6242
384, 38.1661
385, 40.2823
386, 41.6627
387, 42.8434
388, 44.2781
389, 45.6694
390, 47.255
391, 48.5651
392, 50.1567
393, 51.6076
394, 53.2755
395, 54.8076
396, 56.5129
397, 58.1045
398, 59.7443
399, 61.4393
400, 63.1007
401, 64.6274
402, 66.3494
403, 67.9892
404, 69.7757
405, 71.3998
406, 73.0456
407, 74.6648
408, 76.3213
409, 77.8204
410, 79.3313
411, 80.7334
412, 82.2758
413, 83.6941
414, 85.1347
415, 86.4984
416, 87.8518
417, 89.1944
418, 90.3805
419, 91.5114
420, 92.5622
421, 93.6125
422, 94.5593
423, 95.2847
424, 96.3518
425, 97.0934
426, 97.6564
427, 98.2411
428, 98.8583
429, 99.031
430, 99.5242
431, 100
432, 99.9031
433, 99.7564
434, 99.7401
435, 99.5128
436, 99.2859
437, 98.8361
438, 98.4847
439, 98.0083
440, 97.4772
441, 96.7794
442, 96.1563
443, 95.4147
444, 94.5977
445, 93.704
446, 92.7517
447, 91.7069
448, 90.6507
449, 89.5685
450, 88.3932
451, 87.2401
452, 86.0058
453, 84.8153
454, 83.6027
455, 81.9948
456, 80.7172
457, 79.2983
458, 77.7235
459, 76.0831
460, 74.6269
461, 73.0456
462, 71.3083
463, 69.6138
464, 67.8539
465, 66.154
466, 64.2213
467, 62.3969
468, 60.5731
469, 58.8678
470, 56.9135
471, 55.0885
472, 53.2863
473, 51.3212
474, 49.3994
475, 47.4012
476, 45.5232
477, 43.6116
478, 41.7494
479, 39.8768
480, 38.0573
481, 36.2004
482, 34.4518
483, 32.6491
484, 30.9546
485, 29.2439
486, 27.5819
487, 26.0336
488, 24.4534
489, 22.8997
490, 21.5024
491, 20.0949
492, 18.8118
493, 17.3664
494, 16.2301
495, 14.9849
496, 13.9504
497, 12.787
498, 12.0237
499, 10.968
500, 10.215
501, 9.34392
502, 8.74842
503, 7.94179
504, 7.44861
505, 6.68583
506, 6.1174
507, 5.5598
508, 5.1803
509, 4.61782
510, 4.38504
511, 3.97902
512, 3.64879
513, 3.38352
514, 3.18321
515, 2.74417
516, 2.63102
517, 2.40852
518, 2.2407
519, 2.01874
520, 1.9056
521, 1.94836
522, 1.61326
523, 1.5104
524, 1.40159
525, 1.4292
526, 1.22889
527, 1.19046
528, 1.09897
529, 1.01235
530, 1.03346
531, 0.925189
532, 0.892707
533, 0.98528
534, 0.914362
535, 1.01722
536, 0.860225
537, 0.795803
538, 0.757367
539, 0.714599
540, 0.833157
541, 0.763322
542, 0.665876
543, 0.768194
544, 0.632853
545, 0.708644
546, 0.73084
547, 0.659921
548, 0.600371
549, 0.62744
550, 0.616612
551, 0.546776
552, 0.676162
553, 0.535408
554, 0.557604
555, 0.546776
556, 0.590086
557, 0.514295
558, 0.632853
559, 0.519167
560, 0.649635
561, 0.557604
562, 0.573845
563, 0.541363
564, 0.465031
565, 0.476399
566, 0.49264
567, 0.422263
568, 0.389781
569, 0.465031
570, 0.357299
571, 0.411436
572, 0.367585
573, 0.476399
574, 0.313449
575, 0.432549
576, 0.281509
577, 0.275554
578, 0.275554
579, 0.335645
580, 0.286922
581, 0.324818
582, 0.291795
583, 0.183522
584, 0.291795
585, 0.259313
586, 0.324818
587, 0.2382
588, 0.205718
589, 0.249027
590, 0.297208
591, 0.324818
592, 0.232245
593, 0.199763
594, 0.253899
595, 0.253899
596, 0.205718
597, 0.226831
598, 0.281509
599, 0.286922
600, 0.313449
601, 0


