# "wavelength [nm]", "intensity/spectrum"
300, 0.415382
301, 0.409609
302, 0.410712
303, 0.412699
304, 0.409881
305, 0.415741
306, 0.420093
307, 0.420443
308, 0.42618
309, 0.433442
310, 0.436973
311, 0.443099
312, 0.447753
313, 0.455357
314, 0.465667
315, 0.46702
316, 0.476225
317, 0.48739
318, 0.493632
319, 0.50312
320, 0.516719
321, 0.530988
322, 0.553083
323, 0.573592
324, 0.591308
325, 0.621031
326, 0.642834
327, 0.673778
328, 0.708866
329, 0.738007
330, 0.772482
331, 0.802014
332, 0.830941
333, 0.863409
334, 0.877915
335, 0.90709
336, 0.927433
337, 0.948308
338, 0.960593
339, 0.978551
340, 0.98522
341, 0.989912
342, 0.995186
343, 1
344, 0.996203
345, 0.991067
346, 0.982789
347, 0.979174
348, 0.969761
349, 0.955392
350, 0.948542
351, 0.931132
352, 0.915994
353, 0.903699
354, 0.888186
355, 0.880406
356, 0.871042
357, 0.857524
358, 0.845427
359, 0.83408
360, 0.819542
361, 0.803498
362, 0.789089
363, 0.776095
364, 0.748888
365, 0.730748
366, 0.705946
367, 0.6781
368, 0.652213
369, 0.623843
370, 0.591578
371, 0.556742
372, 0.518406
373, 0.484032
374, 0.448785
375, 0.417355
376, 0.386878
377, 0.3595
378, 0.328888
379, 0.301519
380, 0.276546
381, 0.251091
382, 0.228685
383, 0.207298
384, 0.188225
385, 0.169362
386, 0.153822
387, 0.137627
388, 0.122209
389, 0.11048
390, 0.0951841
391, 0.0830287
392, 0.0703592
393, 0.0610608
394, 0.0521616
395, 0.0446124
396, 0.0386255
397, 0.0340034
398, 0.0292771
399, 0.0256438
400, 0


