# "wavelength [nm]", "intensity/spectrum"
375, 0.00376211
376, 0.00449862
377, 0.00489021
378, 0.00557259
379, 0.00636959
380, 0.00764096
381, 0.00974222
382, 0.011281
383, 0.0137803
384, 0.017224
385, 0.0202921
386, 0.0257012
387, 0.030238
388, 0.0361354
389, 0.0409481
390, 0.0469887
391, 0.0515001
392, 0.0571639
393, 0.0633521
394, 0.0706661
395, 0.0772098
396, 0.0886277
397, 0.0982086
398, 0.109268
399, 0.120306
400, 0.134041
401, 0.148578
402, 0.164815
403, 0.180767
404, 0.199862
405, 0.219721
406, 0.24211
407, 0.263352
408, 0.286016
409, 0.309328
410, 0.334152
411, 0.357471
412, 0.383516
413, 0.410849
414, 0.437844
415, 0.468442
416, 0.497485
417, 0.525507
418, 0.556199
419, 0.590265
420, 0.615756
421, 0.649633
422, 0.674905
423, 0.707893
424, 0.738977
425, 0.770873
426, 0.795243
427, 0.821238
428, 0.841656
429, 0.865315
430, 0.89002
431, 0.910694
432, 0.924254
433, 0.942381
434, 0.955129
435, 0.966942
436, 0.971883
437, 0.984014
438, 0.987754
439, 0.990995
440, 0.989495
441, 1
442, 0.996381
443, 0.993101
444, 0.995917
445, 0.992239
446, 0.987571
447, 0.982607
448, 0.98086
449, 0.971561
450, 0.959448
451, 0.954359
452, 0.944346
453, 0.941796
454, 0.930292
455, 0.922887
456, 0.910842
457, 0.905685
458, 0.894332
459, 0.881903
460, 0.868763
461, 0.854355
462, 0.839268
463, 0.822731
464, 0.806666
465, 0.795529
466, 0.776625
467, 0.751027
468, 0.732259
469, 0.718014
470, 0.700204
471, 0.683394
472, 0.661697
473, 0.647177
474, 0.631805
475, 0.616576
476, 0.600956
477, 0.589509
478, 0.569061
479, 0.55418
480, 0.538052
481, 0.517239
482, 0.50159
483, 0.485169
484, 0.468468
485, 0.453532
486, 0.436587
487, 0.42284
488, 0.409089
489, 0.395433
490, 0.381509
491, 0.368245
492, 0.354101
493, 0.342407
494, 0.332855
495, 0.32185
496, 0.310481
497, 0.299036
498, 0.287808
499, 0.276539
500, 0.267709
501, 0.257268
502, 0.248491
503, 0.236533
504, 0.227462
505, 0.217247
506, 0.209591
507, 0.200263
508, 0.194138
509, 0.186262
510, 0.177144
511, 0.171873
512, 0.16149
513, 0.155931
514, 0.150293
515, 0.144303
516, 0.137565
517, 0.129055
518, 0.124119
519, 0.119107
520, 0.113965
521, 0.105871
522, 0.102821
523, 0.100677
524, 0.09572
525, 0.0908913
526, 0.090695
527, 0.0856679
528, 0.0823558
529, 0.078826
530, 0.0774517
531, 0.0744739
532, 0.0715268
533, 0.0698564
534, 0.0667194
535, 0.063593
536, 0.0609515
537, 0.058604
538, 0.0570854
539, 0.0542901
540, 0.0518068
541, 0.0504176
542, 0.0496938
543, 0.0478016
544, 0.0450307
545, 0.0433136
546, 0.0420104
547, 0.040946
548, 0.0386569
549, 0.0370703
550, 0.0364718
551, 0.0360017
552, 0.0338006
553, 0.0327022
554, 0.0317142
555, 0.0299016
556, 0.0289009
557, 0.0276666
558, 0.0268293
559, 0.0261236
560, 0.0253372
561, 0.0242049
562, 0.0236849
563, 0.0233219
564, 0.0223689
565, 0.0213565
566, 0.0212758
567, 0.02017
568, 0.0188848
569, 0.0193125
570, 0.0176782
571, 0.0175148
572, 0.0164238
573, 0.0168451
574, 0.0152172
575, 0.0150134
576, 0.0141931
577, 0.0138949
578, 0.013967
579, 0.0133112
580, 0.0127445
581, 0.0120791
582, 0.0122415
583, 0.0121502
584, 0.0122255
585, 0.0110815
586, 0.0106453
587, 0.0108873
588, 0.0103811
589, 0.009825
590, 0.00959683
591, 0.00921585
592, 0.00897282
593, 0.00851224
594, 0.00833395
595, 0.00826922
596, 0.00743189
597, 0.00815354
598, 0.00827134
599, 0.00758365
600, 0.00735867


