# "wavelength [nm]", "intensity/spectrum"
400, 4.60529
401, 4.52638
402, 4.44316
403, 4.39195
404, 4.29231
405, 4.20519
406, 4.11181
407, 4.02961
408, 3.93018
409, 3.85004
410, 3.76702
411, 3.68595
412, 3.59052
413, 3.51048
414, 3.43342
415, 3.37708
416, 3.29489
417, 3.23137
418, 3.15441
419, 3.10105
420, 2.99114
421, 2.96046
422, 2.87416
423, 2.83322
424, 2.746
425, 2.67304
426, 2.63712
427, 2.54169
428, 2.46996
429, 2.42378
430, 2.35288
431, 2.29757
432, 2.23702
433, 2.19084
434, 2.13851
435, 2.07181
436, 2.03066
437, 1.96509
438, 1.92599
439, 1.9106
440, 1.85108
441, 1.82953
442, 1.79875
443, 1.7495
444, 1.72487
445, 1.70137
446, 1.68084
447, 1.64801
448, 1.60686
449, 1.60183
450, 1.54744
451, 1.52169
452, 1.48382
453, 1.46125
454, 1.40881
455, 1.42225
456, 1.3925
457, 1.3494
458, 1.31451
459, 1.30619
460, 1.27243
461, 1.23744
462, 1.216
463, 1.18726
464, 1.14098
465, 1.12149
466, 1.09686
467, 1.07326
468, 1.07131
469, 1.03837
470, 1.03744
471, 1.00563
472, 0.997424
473, 0.978851
474, 0.956378
475, 0.96038
476, 0.930622
477, 0.912253
478, 0.90507
479, 0.89368
480, 0.894809
481, 0.885573
482, 0.882495
483, 0.875312
484, 0.847503
485, 0.853762
486, 0.862998
487, 0.845553
488, 0.821849
489, 0.841449
490, 0.835189
491, 0.840422
492, 0.843501
493, 0.857867
494, 0.850684
495, 0.861869
496, 0.858791
497, 0.880443
498, 0.897887
499, 0.924567
500, 0.923439
501, 0.962432
502, 0.98706
503, 1.01169
504, 1.04976
505, 1.09275
506, 1.12261
507, 1.15443
508, 1.19332
509, 1.22205
510, 1.2908
511, 1.30106
512, 1.36982
513, 1.40368
514, 1.46638
515, 1.49706
516, 1.58233
517, 1.63775
518, 1.67982
519, 1.75155
520, 1.82451
521, 1.89531
522, 1.95986
523, 2.05129
524, 2.11081
525, 2.18253
526, 2.26268
527, 2.35903
528, 2.41547
529, 2.51306
530, 2.61157
531, 2.69356
532, 2.78181
533, 2.89992
534, 3.00038
535, 3.09181
536, 3.20879
537, 3.3031
538, 3.39853
539, 3.52577
540, 3.62428
541, 3.74752
542, 3.86132
543, 3.97112
544, 4.1076
545, 4.21124
546, 4.33849
547, 4.48625
548, 4.63618
549, 4.76434
550, 4.90082
551, 5.061
552, 5.20662
553, 5.37798
554, 5.55356
555, 5.69609
556, 5.89219
557, 6.06766
558, 6.2379
559, 6.42159
560, 6.65144
561, 6.8342
562, 7.05893
563, 7.24149
564, 7.46632
565, 7.69002
566, 7.92398
567, 8.14553
568, 8.39602
569, 8.64219
570, 8.88641
571, 9.13064
572, 9.39641
573, 9.67153
574, 9.93115
575, 10.2112
576, 10.477
577, 10.7716
578, 11.0383
579, 11.3093
580, 11.6232
581, 11.8972
582, 12.2061
583, 12.5191
584, 12.8002
585, 13.1173
586, 13.419
587, 13.7309
588, 14.0336
589, 14.3466
590, 14.6729
591, 15.0106
592, 15.343
593, 15.6909
594, 16.0399
595, 16.4051
596, 16.7776
597, 17.1706
598, 17.5832
599, 17.9875
600, 18.4204
601, 18.8617
602, 19.3337
603, 19.8088
604, 20.3445
605, 20.87
606, 21.4231
607, 22.0152
608, 22.5918
609, 23.2455
610, 23.9002
611, 24.5744
612, 25.2834
613, 26.0027
614, 26.7509
615, 27.507
616, 28.3126
617, 29.1049
618, 29.9381
619, 30.7734
620, 31.6363
621, 32.5198
622, 33.4322
623, 34.2889
624, 35.2084
625, 36.1197
626, 37.0104
627, 37.9328
628, 38.8349
629, 39.7388
630, 40.6244
631, 41.4988
632, 42.3485
633, 43.158
634, 43.9861
635, 44.7579
636, 45.5275
637, 46.2067
638, 46.8819
639, 47.4658
640, 48.0733
641, 48.5823
642, 49.0533
643, 49.4864
644, 49.8701
645, 50.2139
646, 50.5156
647, 50.7906
648, 51.0226
649, 51.2278
650, 51.4433
651, 51.6249
652, 51.8013
653, 51.9974
654, 52.1974
655, 52.4305
656, 52.6807
657, 52.9887
658, 53.3212
659, 53.7212
660, 54.1698
661, 54.7105
662, 55.2914
663, 55.9808
664, 56.7506
665, 57.6114
666, 58.5678
667, 59.6114
668, 60.7454
669, 61.9747
670, 63.281
671, 64.6725
672, 66.1481
673, 67.712
674, 69.3301
675, 71.0602
676, 72.7944
677, 74.6138
678, 76.4035
679, 78.3295
680, 80.1387
681, 82.0433
682, 83.9405
683, 85.7857
684, 87.6932
685, 89.2519
686, 90.8939
687, 92.5019
688, 93.9897
689, 95.3125
690, 96.5387
691, 97.5947
692, 98.4853
693, 99.1728
694, 99.6665
695, 99.9517
696, 100
697, 99.8194
698, 99.3751
699, 98.6814
700, 97.7403
701, 96.5357
702, 95.1205
703, 93.4028
704, 91.5322
705, 89.3638
706, 87.0395
707, 84.5348
708, 81.8822
709, 79.0961
710, 76.1336
711, 73.1701
712, 70.033
713, 66.9125
714, 63.6596
715, 60.4919
716, 57.2821
717, 54.1266
718, 51.0154
719, 48.0139
720, 45.0411
721, 42.1555
722, 39.4793
723, 36.8051
724, 34.2489
725, 31.7451
726, 29.4773
727, 27.2804
728, 25.2691
729, 23.308
730, 21.5544
731, 19.8726
732, 18.3383
733, 16.9111
734, 15.6007
735, 14.3805
736, 13.2651
737, 12.245
738, 11.3071
739, 10.4595
740, 9.65706
741, 8.92962
742, 8.2543
743, 7.63461
744, 7.07422
745, 6.53251
746, 6.08306
747, 5.61297
748, 5.22098
749, 4.84962
750, 4.51098
751, 4.18251
752, 3.89221
753, 3.63557
754, 3.37606
755, 3.13891
756, 2.92147
757, 2.72229
758, 2.5305
759, 2.36621
760, 2.21434
761, 2.05334
762, 1.92497
763, 1.79577
764, 1.67151
765, 1.58736
766, 1.47356
767, 1.38726
768, 1.29901
769, 1.24062
770, 1.15751
771, 1.08044
772, 1.02605
773, 0.972694
774, 0.901992
775, 0.852736
776, 0.81169
777, 0.777724
778, 0.723441
779, 0.706919
780, 0.661871
781, 0.647505
782, 0.622877
783, 0.594042
784, 0.558127
785, 0.556074
786, 0.534628
787, 0.511026
788, 0.490503
789, 0.481165
790, 0.459718


