# "wavelength [nm]", "intensity/spectrum"
305.104, 0.13168
307.149, 0.147371
308.907, 0.165319
310.664, 0.183267
312.13, 0.201223
313.889, 0.22142
315.646, 0.239368
317.113, 0.257324
318.87, 0.275272
320.627, 0.29322
322.386, 0.313418
323.853, 0.331373
325.61, 0.349322
327.077, 0.367278
328.836, 0.387476
330.303, 0.405432
332.06, 0.42338
333.819, 0.443577
335.286, 0.461533
337.043, 0.479481
338.511, 0.499686
340.268, 0.517634
342.026, 0.535582
343.492, 0.553538
345.251, 0.573737
347.008, 0.591685
348.475, 0.609641
350.234, 0.629838
351.701, 0.647794
353.17, 0.667999
354.636, 0.685955
356.393, 0.703903
358.151, 0.721851
359.908, 0.739799
361.665, 0.757747
363.422, 0.775695
365.469, 0.793636
367.226, 0.811584
368.984, 0.829533
370.741, 0.847481
372.498, 0.865429
374.541, 0.87887
376.297, 0.894569
378.921, 0.907995
381.54, 0.914672
384.146, 0.905604
386.457, 0.892044
388.769, 0.878486
391.082, 0.867177
393.686, 0.855859
396.29, 0.844541
398.019, 0.828748
399.454, 0.808465
400.891, 0.79043
402.325, 0.770147
404.053, 0.752105
405.487, 0.731821
407.217, 0.716027
409.528, 0.702469
412.432, 0.70239
415.05, 0.709068
417.673, 0.720245
420.294, 0.729172
423.203, 0.735842
425.822, 0.742519
428.44, 0.749197
431.063, 0.760373
433.399, 0.776056
435.444, 0.791747
437.488, 0.805189
440.109, 0.814116
443.014, 0.816287
445.918, 0.816208
448.25, 0.827393
449.717, 0.845348
451.185, 0.865554
452.652, 0.883509
454.973, 0.881197
456.7, 0.863155
458.427, 0.845113
460.75, 0.84505
462.217, 0.863007
463.974, 0.880955
465.152, 0.901168
466.331, 0.921381
467.22, 0.943851
468.108, 0.964073
468.998, 0.986543
470.461, 1
471.606, 0.979724
472.168, 0.957214
472.73, 0.934705
473.582, 0.912188
474.146, 0.891927
474.708, 0.869417
475.27, 0.846908
476.124, 0.82664
476.686, 0.80413
477.538, 0.781613
478.392, 0.761344
478.954, 0.738836
480.389, 0.718552
482.409, 0.702751
484.428, 0.68695
485.282, 0.666682
485.844, 0.644172
486.406, 0.621663
486.97, 0.601403
487.532, 0.578893
488.094, 0.556384
488.656, 0.533874
489.218, 0.511364
490.072, 0.491096
490.924, 0.46858
493.206, 0.41903
494.06, 0.398762
495.203, 0.376236
496.057, 0.355968
496.91, 0.33345
497.471, 0.310942
498.035, 0.290681
498.888, 0.268164
499.45, 0.245654
500.013, 0.225394


