# "wavelength [nm]", "intensity/spectrum"
200, 0.514
200.5, 0.509
201, 0.505
201.5, 0.501
202, 0.495
202.5, 0.488
203, 0.487
203.5, 0.483
204, 0.476
204.5, 0.47
205, 0.467
205.5, 0.459
206, 0.454
206.5, 0.449
207, 0.442
207.5, 0.435
208, 0.428
208.5, 0.42
209, 0.413
209.5, 0.405
210, 0.398
210.5, 0.389
211, 0.383
211.5, 0.375
212, 0.367
212.5, 0.361
213, 0.353
213.5, 0.346
214, 0.34
214.5, 0.334
215, 0.328
215.5, 0.324
216, 0.318
216.5, 0.315
217, 0.312
217.5, 0.307
218, 0.304
218.5, 0.301
219, 0.298
219.5, 0.296
220, 0.294
220.5, 0.293
221, 0.291
221.5, 0.29
222, 0.291
222.5, 0.289
223, 0.288
223.5, 0.287
224, 0.287
224.5, 0.286
225, 0.286
225.5, 0.285
226, 0.286
226.5, 0.285
227, 0.285
227.5, 0.285
228, 0.286
228.5, 0.285
229, 0.286
229.5, 0.287
230, 0.287
230.5, 0.29
231, 0.29
231.5, 0.292
232, 0.294
232.5, 0.296
233, 0.299
233.5, 0.301
234, 0.304
234.5, 0.306
235, 0.31
235.5, 0.313
236, 0.315
236.5, 0.319
237, 0.321
237.5, 0.325
238, 0.327
238.5, 0.33
239, 0.332
239.5, 0.334
240, 0.335
240.5, 0.337
241, 0.338
241.5, 0.339
242, 0.339
242.5, 0.338
243, 0.338
243.5, 0.338
244, 0.338
244.5, 0.337
245, 0.336
245.5, 0.335
246, 0.334
246.5, 0.332
247, 0.33
247.5, 0.328
248, 0.326
248.5, 0.323
249, 0.321
249.5, 0.318
250, 0.315
250.5, 0.313
251, 0.312
251.5, 0.31
252, 0.309
252.5, 0.308
253, 0.306
253.5, 0.305
254, 0.302
254.5, 0.299
255, 0.296
255.5, 0.292
256, 0.286
256.5, 0.279
257, 0.271
257.5, 0.263
258, 0.254
258.5, 0.244
259, 0.233
259.5, 0.223
260, 0.213
260.5, 0.203
261, 0.193
261.5, 0.184
262, 0.176
262.5, 0.168
263, 0.162
263.5, 0.156
264, 0.151
264.5, 0.147
265, 0.143
265.5, 0.14
266, 0.138
266.5, 0.135
267, 0.134
267.5, 0.133
268, 0.131
268.5, 0.13
269, 0.129
269.5, 0.127
270, 0.125
270.5, 0.124
271, 0.121
271.5, 0.119
272, 0.117
272.5, 0.114
273, 0.112
273.5, 0.109
274, 0.106
274.5, 0.104
275, 0.101
275.5, 0.099
276, 0.096
276.5, 0.094
277, 0.091
277.5, 0.089
278, 0.087
278.5, 0.085
279, 0.083
279.5, 0.082
280, 0.081
280.5, 0.08
281, 0.079
281.5, 0.078
282, 0.078
282.5, 0.077
283, 0.077
283.5, 0.077
284, 0.077
284.5, 0.077
285, 0.078
285.5, 0.078
286, 0.078
286.5, 0.079
287, 0.08
287.5, 0.081
288, 0.082
288.5, 0.083
289, 0.084
289.5, 0.085
290, 0.086
290.5, 0.088
291, 0.089
291.5, 0.09
292, 0.091
292.5, 0.093
293, 0.094
293.5, 0.096
294, 0.097
294.5, 0.099
295, 0.101
295.5, 0.103
296, 0.104
296.5, 0.106
297, 0.108
297.5, 0.109
298, 0.111
298.5, 0.112
299, 0.115
299.5, 0.116
300, 0.117
300.5, 0.118
301, 0.12
301.5, 0.121
302, 0.122
302.5, 0.123
303, 0.124
303.5, 0.124
304, 0.125
304.5, 0.125
305, 0.126
305.5, 0.126
306, 0.125
306.5, 0.125
307, 0.124
307.5, 0.124
308, 0.123
308.5, 0.123
309, 0.122
309.5, 0.121
310, 0.119
310.5, 0.117
311, 0.116
311.5, 0.115
312, 0.113
312.5, 0.111
313, 0.109
313.5, 0.107
314, 0.104
314.5, 0.102
315, 0.1
315.5, 0.097
316, 0.094
316.5, 0.091
317, 0.088
317.5, 0.085
318, 0.082
318.5, 0.08
319, 0.077
319.5, 0.073
320, 0.07
320.5, 0.068
321, 0.065
321.5, 0.063
322, 0.06
322.5, 0.058
323, 0.056
323.5, 0.054
324, 0.053
324.5, 0.051
325, 0.05
325.5, 0.049
326, 0.049
326.5, 0.047
327, 0.046
327.5, 0.047
328, 0.046
328.5, 0.046
329, 0.046
329.5, 0.046
330, 0.047
330.5, 0.047
331, 0.047
331.5, 0.048
332, 0.049
332.5, 0.05
333, 0.051
333.5, 0.053
334, 0.054
334.5, 0.055
335, 0.056
335.5, 0.057
336, 0.058
336.5, 0.059
337, 0.061
337.5, 0.062
338, 0.062
338.5, 0.064
339, 0.065
339.5, 0.065
340, 0.066
340.5, 0.066
341, 0.067
341.5, 0.068
342, 0.068
342.5, 0.068
343, 0.069
343.5, 0.068
344, 0.068
344.5, 0.069
345, 0.068
345.5, 0.069
346, 0.069
346.5, 0.069
347, 0.068
347.5, 0.068
348, 0.068
348.5, 0.068
349, 0.067
349.5, 0.066
350, 0.066
350.5, 0.065
351, 0.065
351.5, 0.065
352, 0.064
352.5, 0.063
353, 0.062
353.5, 0.061
354, 0.061
354.5, 0.06
355, 0.058
355.5, 0.058
356, 0.057
356.5, 0.055
357, 0.055
357.5, 0.054
358, 0.053
358.5, 0.052
359, 0.051
359.5, 0.05
360, 0.049
360.5, 0.048
361, 0.046
361.5, 0.046
362, 0.044
362.5, 0.043
363, 0.042
363.5, 0.041
364, 0.041
364.5, 0.039
365, 0.038
365.5, 0.038
366, 0.036
366.5, 0.036
367, 0.035
367.5, 0.034
368, 0.034
368.5, 0.033
369, 0.032
369.5, 0.031
370, 0.031
370.5, 0.03
371, 0.03
371.5, 0.029
372, 0.028
372.5, 0.028
373, 0.027
373.5, 0.027
374, 0.027
374.5, 0.026
375, 0.025
375.5, 0.026
376, 0.026
376.5, 0.025
377, 0.025
377.5, 0.024
378, 0.025
378.5, 0.025
379, 0.024
379.5, 0.024
380, 0.024
380.5, 0.023
381, 0.024
381.5, 0.023
382, 0.023
382.5, 0.023
383, 0.023
383.5, 0.023
384, 0.022
384.5, 0.022
385, 0.022
385.5, 0.022
386, 0.022
386.5, 0.022
387, 0.021
387.5, 0.021
388, 0.021
388.5, 0.021
389, 0.021
389.5, 0.02
390, 0.02
390.5, 0.02
391, 0.02
391.5, 0.019
392, 0.02
392.5, 0.02
393, 0.019
393.5, 0.019
394, 0.019
394.5, 0.019
395, 0.019
395.5, 0.018
396, 0.018
396.5, 0.018
397, 0.018
397.5, 0.017
398, 0.017
398.5, 0.016
399, 0.017
399.5, 0.016
400, 0.016
400.5, 0.016
401, 0.016
401.5, 0.016
402, 0.016
402.5, 0.015
403, 0.015
403.5, 0.016
404, 0.015
404.5, 0.015
405, 0.015
405.5, 0.015
406, 0.015
406.5, 0.015
407, 0.015
407.5, 0.015
408, 0.015
408.5, 0.015
409, 0.015
409.5, 0.014
410, 0.015
410.5, 0.015
411, 0.015
411.5, 0.015
412, 0.015
412.5, 0.015
413, 0.015
413.5, 0.015
414, 0.015
414.5, 0.015
415, 0.015
415.5, 0.015
416, 0.015
416.5, 0.015
417, 0.015
417.5, 0.016
418, 0.015
418.5, 0.015
419, 0.016
419.5, 0.016
420, 0.015
420.5, 0.016
421, 0.016
421.5, 0.016
422, 0.016
422.5, 0.017
423, 0.017
423.5, 0.017
424, 0.017
424.5, 0.018
425, 0.018
425.5, 0.018
426, 0.019
426.5, 0.019
427, 0.019
427.5, 0.02
428, 0.02
428.5, 0.021
429, 0.021
429.5, 0.021
430, 0.023
430.5, 0.023
431, 0.023
431.5, 0.024
432, 0.025
432.5, 0.025
433, 0.026
433.5, 0.027
434, 0.028
434.5, 0.028
435, 0.029
435.5, 0.03
436, 0.031
436.5, 0.032
437, 0.033
437.5, 0.034
438, 0.035
438.5, 0.036
439, 0.037
439.5, 0.038
440, 0.039
440.5, 0.04
441, 0.041
441.5, 0.043
442, 0.043
442.5, 0.045
443, 0.046
443.5, 0.047
444, 0.049
444.5, 0.05
445, 0.051
445.5, 0.053
446, 0.054
446.5, 0.055
447, 0.057
447.5, 0.058
448, 0.059
448.5, 0.06
449, 0.062
449.5, 0.063
450, 0.065
450.5, 0.066
451, 0.068
451.5, 0.07
452, 0.071
452.5, 0.073
453, 0.075
453.5, 0.077
454, 0.079
454.5, 0.081
455, 0.083
455.5, 0.085
456, 0.088
456.5, 0.091
457, 0.093
457.5, 0.096
458, 0.098
458.5, 0.102
459, 0.105
459.5, 0.108
460, 0.112
460.5, 0.115
461, 0.119
461.5, 0.123
462, 0.127
462.5, 0.132
463, 0.136
463.5, 0.14
464, 0.145
464.5, 0.15
465, 0.154
465.5, 0.16
466, 0.165
466.5, 0.17
467, 0.176
467.5, 0.181
468, 0.187
468.5, 0.193
469, 0.198
469.5, 0.204
470, 0.21
470.5, 0.215
471, 0.221
471.5, 0.227
472, 0.232
472.5, 0.238
473, 0.243
473.5, 0.248
474, 0.254
474.5, 0.259
475, 0.263
475.5, 0.268
476, 0.272
476.5, 0.277
477, 0.281
477.5, 0.285
478, 0.289
478.5, 0.293
479, 0.296
479.5, 0.3
480, 0.303
480.5, 0.306
481, 0.309
481.5, 0.312
482, 0.316
482.5, 0.319
483, 0.322
483.5, 0.325
484, 0.329
484.5, 0.332
485, 0.337
485.5, 0.341
486, 0.346
486.5, 0.351
487, 0.356
487.5, 0.362
488, 0.369
488.5, 0.375
489, 0.383
489.5, 0.391
490, 0.399
490.5, 0.408
491, 0.418
491.5, 0.428
492, 0.439
492.5, 0.45
493, 0.462
493.5, 0.475
494, 0.488
494.5, 0.501
495, 0.516
495.5, 0.531
496, 0.546
496.5, 0.563
497, 0.579
497.5, 0.596
498, 0.614
498.5, 0.631
499, 0.65
499.5, 0.669
500, 0.688
500.5, 0.707
501, 0.726
501.5, 0.746
502, 0.765
502.5, 0.785
503, 0.804
503.5, 0.823
504, 0.842
504.5, 0.86
505, 0.878
505.5, 0.895
506, 0.912
506.5, 0.927
507, 0.941
507.5, 0.954
508, 0.966
508.5, 0.976
509, 0.984
509.5, 0.991
510, 0.996
510.5, 0.999
511, 1
511.5, 0.999
512, 0.996
512.5, 0.991
513, 0.984
513.5, 0.975
514, 0.963
514.5, 0.949
515, 0.934
515.5, 0.917
516, 0.897
516.5, 0.876
517, 0.854
517.5, 0.83
518, 0.805
518.5, 0.778
519, 0.752
519.5, 0.724
520, 0.695
520.5, 0.667
521, 0.638
521.5, 0.609
522, 0.58
522.5, 0.55
523, 0.522
523.5, 0.494
524, 0.466
524.5, 0.44
525, 0.414
525.5, 0.389
526, 0.365
526.5, 0.341
527, 0.319
527.5, 0.298
528, 0.277
528.5, 0.258
529, 0.24
529.5, 0.222
530, 0.206
530.5, 0.191
531, 0.176
531.5, 0.163
532, 0.151
532.5, 0.139
533, 0.128
533.5, 0.118
534, 0.108
534.5, 0.1
535, 0.092
535.5, 0.084
536, 0.077
536.5, 0.071
537, 0.065
537.5, 0.06
538, 0.055
538.5, 0.051
539, 0.047
539.5, 0.043
540, 0.04
540.5, 0.036
541, 0.033
541.5, 0.031
542, 0.028
542.5, 0.026
543, 0.025
543.5, 0.022
544, 0.02
544.5, 0.019
545, 0.018
545.5, 0.017
546, 0.016
546.5, 0.014
547, 0.014
547.5, 0.013
548, 0.012
548.5, 0.011
549, 0.011
549.5, 0.01
550, 0.01
550.5, 0.009
551, 0.008
551.5, 0.008
552, 0.008
552.5, 0.008
553, 0.007
553.5, 0.007
554, 0.007
554.5, 0.007
555, 0.006
555.5, 0.006
556, 0.006
556.5, 0.006
557, 0.006
557.5, 0.006
558, 0.005
558.5, 0.005
559, 0.005
559.5, 0.005
560, 0.005
560.5, 0.005
561, 0.005
561.5, 0.005
562, 0.005
562.5, 0.005
563, 0.004
563.5, 0.004
564, 0.005
564.5, 0.004
565, 0.004
565.5, 0.004
566, 0.004
566.5, 0.004
567, 0.004
567.5, 0.004
568, 0.004
568.5, 0.004
569, 0.004
569.5, 0.004
570, 0.004
570.5, 0.004
571, 0.004
571.5, 0.004
572, 0.004
572.5, 0.004
573, 0.004
573.5, 0.004
574, 0.004
574.5, 0.004
575, 0.004
575.5, 0.004
576, 0.004
576.5, 0.004
577, 0.004
577.5, 0.003
578, 0.004
578.5, 0.004
579, 0.004
579.5, 0.004
580, 0.003
580.5, 0.004
581, 0.004
581.5, 0.004
582, 0.004
582.5, 0.004
583, 0.003
583.5, 0.004
584, 0.003
584.5, 0.003
585, 0.004
585.5, 0.004
586, 0.003
586.5, 0.004
587, 0.003
587.5, 0.004
588, 0.004
588.5, 0.003
589, 0.004
589.5, 0.003
590, 0.003
590.5, 0.004
591, 0.003
591.5, 0.003
592, 0.004
592.5, 0.003
593, 0.003
593.5, 0.003
594, 0.003
594.5, 0.003
595, 0.004
595.5, 0.003
596, 0.003
596.5, 0.004
597, 0.003
597.5, 0.003
598, 0.004
598.5, 0.003
599, 0.003
599.5, 0.003
600, 0.003
600.5, 0.003
601, 0.003
601.5, 0.003
602, 0.003
602.5, 0.003
603, 0.003
603.5, 0.004
604, 0.003
604.5, 0.003
605, 0.004
605.5, 0.003
606, 0.003
606.5, 0.004
607, 0.003
607.5, 0.003
608, 0.003
608.5, 0.003
609, 0.003
609.5, 0.003
610, 0.003
610.5, 0.003
611, 0.003
611.5, 0.003
612, 0.003
612.5, 0.003
613, 0.003
613.5, 0.003
614, 0.003
614.5, 0.003
615, 0.003
615.5, 0.003
616, 0.004
616.5, 0.003
617, 0.003
617.5, 0.003
618, 0.003
618.5, 0.003
619, 0.003
619.5, 0.003
620, 0.003
620.5, 0.003
621, 0.003
621.5, 0.003
622, 0.003
622.5, 0.003
623, 0.003
623.5, 0.003
624, 0.003
624.5, 0.003
625, 0.003
625.5, 0.003
626, 0.003
626.5, 0.003
627, 0.003
627.5, 0.003
628, 0.003
628.5, 0.003
629, 0.003
629.5, 0.003
630, 0.003
630.5, 0.003
631, 0.003
631.5, 0.003
632, 0.003
632.5, 0.003
633, 0.003
633.5, 0.003
634, 0.003
634.5, 0.003
635, 0.003
635.5, 0.003
636, 0.003
636.5, 0.003
637, 0.003
637.5, 0.003
638, 0.003
638.5, 0.003
639, 0.003
639.5, 0.003
640, 0.003
640.5, 0.003
641, 0.003
641.5, 0.003
642, 0.003
642.5, 0.003
643, 0.003
643.5, 0.003
644, 0.003
644.5, 0.003
645, 0.003
645.5, 0.003
646, 0.003
646.5, 0.003
647, 0.003
647.5, 0.003
648, 0.003
648.5, 0.003
649, 0.003
649.5, 0.003
650, 0.004
650.5, 0.003
651, 0.003
651.5, 0.003
652, 0.003
652.5, 0.003
653, 0.003
653.5, 0.003
654, 0.003
654.5, 0.003
655, 0.003
655.5, 0.003
656, 0.003
656.5, 0.003
657, 0.003
657.5, 0.003
658, 0.003
658.5, 0.003
659, 0.003
659.5, 0.003
660, 0.003
660.5, 0.003
661, 0.003
661.5, 0.003
662, 0.003
662.5, 0.003
663, 0.003
663.5, 0.003
664, 0.003
664.5, 0.003
665, 0.003
665.5, 0.003
666, 0.003
666.5, 0.003
667, 0.003
667.5, 0.003
668, 0.003
668.5, 0.003
669, 0.003
669.5, 0.003
670, 0.003
670.5, 0.003
671, 0.003
671.5, 0.003
672, 0.003
672.5, 0.003
673, 0.003
673.5, 0.003
674, 0.003
674.5, 0.003
675, 0.003
675.5, 0.003
676, 0.003
676.5, 0.003
677, 0.003
677.5, 0.003
678, 0.003
678.5, 0.003
679, 0.003
679.5, 0.003
680, 0.003
680.5, 0.003
681, 0.003
681.5, 0.003
682, 0.003
682.5, 0.003
683, 0.003
683.5, 0.003
684, 0.003
684.5, 0.003
685, 0.003
685.5, 0.003
686, 0.003
686.5, 0.003
687, 0.003
687.5, 0.003
688, 0.003
688.5, 0.003
689, 0.003
689.5, 0.003
690, 0.003
690.5, 0.003
691, 0.003
691.5, 0.003
692, 0.003
692.5, 0.003
693, 0.003
693.5, 0.003
694, 0.003
694.5, 0.003
695, 0.003
695.5, 0.003
696, 0.003
696.5, 0.003
697, 0.003
697.5, 0.003
698, 0.003
698.5, 0.003
699, 0.003
699.5, 0.003
700, 0.003


