# "wavelength [nm]", "intensity/spectrum"
251, 0.07
252, 0.068
253, 0.066
254, 0.065
255, 0.063
256, 0.06
257, 0.057
258, 0.055
259, 0.052
260, 0.049
261, 0.046
262, 0.044
263, 0.043
264, 0.041
265, 0.04
266, 0.04
267, 0.039
268, 0.039
269, 0.04
270, 0.04
271, 0.041
272, 0.042
273, 0.043
274, 0.044
275, 0.046
276, 0.048
277, 0.049
278, 0.051
279, 0.054
280, 0.056
281, 0.059
282, 0.061
283, 0.064
284, 0.068
285, 0.071
286, 0.074
287, 0.078
288, 0.082
289, 0.085
290, 0.09
291, 0.094
292, 0.098
293, 0.102
294, 0.106
295, 0.11
296, 0.114
297, 0.118
298, 0.122
299, 0.125
300, 0.128
301, 0.13
302, 0.133
303, 0.135
304, 0.137
305, 0.139
306, 0.14
307, 0.142
308, 0.142
309, 0.143
310, 0.143
311, 0.142
312, 0.141
313, 0.14
314, 0.138
315, 0.136
316, 0.133
317, 0.129
318, 0.124
319, 0.118
320, 0.111
321, 0.104
322, 0.097
323, 0.089
324, 0.081
325, 0.074
326, 0.067
327, 0.06
328, 0.054
329, 0.049
330, 0.045
331, 0.041
332, 0.038
333, 0.035
334, 0.033
335, 0.03
336, 0.029
337, 0.027
338, 0.026
339, 0.025
340, 0.023
341, 0.022
342, 0.022
343, 0.021
344, 0.021
345, 0.02
346, 0.02
347, 0.02
348, 0.02
349, 0.019
350, 0.019
351, 0.019
352, 0.019
353, 0.02
354, 0.02
355, 0.02
356, 0.021
357, 0.021
358, 0.022
359, 0.023
360, 0.023
361, 0.024
362, 0.024
363, 0.025
364, 0.026
365, 0.027
366, 0.027
367, 0.028
368, 0.029
369, 0.029
370, 0.03
371, 0.031
372, 0.031
373, 0.032
374, 0.032
375, 0.033
376, 0.035
377, 0.036
378, 0.037
379, 0.038
380, 0.04
381, 0.041
382, 0.042
383, 0.044
384, 0.045
385, 0.046
386, 0.046
387, 0.047
388, 0.047
389, 0.048
390, 0.048
391, 0.047
392, 0.047
393, 0.047
394, 0.046
395, 0.046
396, 0.046
397, 0.046
398, 0.046
399, 0.047
400, 0.047
401, 0.049
402, 0.05
403, 0.052
404, 0.053
405, 0.055
406, 0.057
407, 0.059
408, 0.06
409, 0.062
410, 0.062
411, 0.062
412, 0.062
413, 0.06
414, 0.058
415, 0.055
416, 0.052
417, 0.048
418, 0.044
419, 0.041
420, 0.037
421, 0.033
422, 0.029
423, 0.026
424, 0.022
425, 0.02
426, 0.017
427, 0.015
428, 0.013
429, 0.011
430, 0.01
431, 0.009
432, 0.008
433, 0.007
434, 0.006
435, 0.006
436, 0.006
437, 0.005
438, 0.005
439, 0.005
440, 0.004
441, 0.004
442, 0.004
443, 0.004
444, 0.004
445, 0.004
446, 0.004
447, 0.004
448, 0.004
449, 0.004
450, 0.004
451, 0.004
452, 0.004
453, 0.004
454, 0.004
455, 0.004
456, 0.004
457, 0.005
458, 0.005
459, 0.005
460, 0.005
461, 0.005
462, 0.005
463, 0.005
464, 0.005
465, 0.005
466, 0.006
467, 0.006
468, 0.006
469, 0.006
470, 0.006
471, 0.006
472, 0.006
473, 0.006
474, 0.007
475, 0.007
476, 0.007
477, 0.007
478, 0.007
479, 0.008
480, 0.008
481, 0.008
482, 0.008
483, 0.009
484, 0.009
485, 0.009
486, 0.009
487, 0.01
488, 0.01
489, 0.01
490, 0.01
491, 0.011
492, 0.011
493, 0.012
494, 0.012
495, 0.012
496, 0.013
497, 0.013
498, 0.014
499, 0.014
500, 0.015
501, 0.015
502, 0.016
503, 0.016
504, 0.017
505, 0.017
506, 0.018
507, 0.019
508, 0.019
509, 0.02
510, 0.021
511, 0.022
512, 0.023
513, 0.023
514, 0.024
515, 0.026
516, 0.027
517, 0.028
518, 0.029
519, 0.03
520, 0.032
521, 0.033
522, 0.034
523, 0.036
524, 0.037
525, 0.039
526, 0.04
527, 0.042
528, 0.044
529, 0.045
530, 0.047
531, 0.049
532, 0.05
533, 0.052
534, 0.054
535, 0.056
536, 0.058
537, 0.059
538, 0.061
539, 0.063
540, 0.065
541, 0.067
542, 0.069
543, 0.071
544, 0.073
545, 0.076
546, 0.078
547, 0.081
548, 0.084
549, 0.087
550, 0.09
551, 0.093
552, 0.097
553, 0.101
554, 0.105
555, 0.11
556, 0.115
557, 0.12
558, 0.126
559, 0.132
560, 0.138
561, 0.145
562, 0.152
563, 0.159
564, 0.167
565, 0.174
566, 0.182
567, 0.19
568, 0.199
569, 0.207
570, 0.215
571, 0.223
572, 0.231
573, 0.239
574, 0.246
575, 0.253
576, 0.259
577, 0.265
578, 0.27
579, 0.274
580, 0.278
581, 0.281
582, 0.284
583, 0.286
584, 0.288
585, 0.289
586, 0.29
587, 0.291
588, 0.291
589, 0.292
590, 0.293
591, 0.294
592, 0.295
593, 0.297
594, 0.3
595, 0.303
596, 0.308
597, 0.313
598, 0.32
599, 0.327
600, 0.336
601, 0.346
602, 0.358
603, 0.371
604, 0.386
605, 0.403
606, 0.42
607, 0.44
608, 0.461
609, 0.483
610, 0.507
611, 0.533
612, 0.56
613, 0.589
614, 0.618
615, 0.649
616, 0.68
617, 0.712
618, 0.744
619, 0.776
620, 0.808
621, 0.839
622, 0.869
623, 0.897
624, 0.922
625, 0.945
626, 0.964
627, 0.98
628, 0.992
629, 0.998
630, 1
631, 0.996
632, 0.987
633, 0.973
634, 0.953
635, 0.929
636, 0.899
637, 0.866
638, 0.829
639, 0.789
640, 0.747
641, 0.703
642, 0.659
643, 0.614
644, 0.57
645, 0.528
646, 0.486
647, 0.445
648, 0.407
649, 0.371
650, 0.337
651, 0.305
652, 0.276
653, 0.249
654, 0.224
655, 0.201
656, 0.181
657, 0.162
658, 0.145
659, 0.129
660, 0.116
661, 0.103
662, 0.092
663, 0.082
664, 0.073
665, 0.065
666, 0.058
667, 0.052
668, 0.046
669, 0.041
670, 0.037
671, 0.033
672, 0.029
673, 0.026
674, 0.023
675, 0.021
676, 0.019
677, 0.017
678, 0.015
679, 0.014
680, 0.012
681, 0.011
682, 0.01
683, 0.009
684, 0.008
685, 0.007
686, 0.006
687, 0.006
688, 0.005
689, 0.005
690, 0.004
691, 0.004
692, 0.004
693, 0.003
694, 0.003
695, 0.003
696, 0.003
697, 0.002
698, 0.003
699, 0.002
700, 0.002


