# "wavelength [nm]", "intensity/spectrum"
250, 0.3888
250.5, 0.3638
251, 0.3398
251.5, 0.3146
252, 0.2888
252.5, 0.2651
253, 0.2428
253.5, 0.2225
254, 0.2054
254.5, 0.1905
255, 0.1772
255.5, 0.1657
256, 0.1558
256.5, 0.1473
257, 0.1415
257.5, 0.1384
258, 0.1363
258.5, 0.1334
259, 0.1303
259.5, 0.1289
260, 0.1293
260.5, 0.1291
261, 0.129
261.5, 0.1306
262, 0.1328
262.5, 0.1344
263, 0.1365
263.5, 0.1389
264, 0.1409
264.5, 0.1426
265, 0.1449
265.5, 0.1485
266, 0.1521
266.5, 0.1546
267, 0.1567
267.5, 0.16
268, 0.1636
268.5, 0.166
269, 0.1669
269.5, 0.169
270, 0.1718
270.5, 0.1743
271, 0.176
271.5, 0.1775
272, 0.1795
272.5, 0.1817
273, 0.1838
273.5, 0.1858
274, 0.1873
274.5, 0.1873
275, 0.1863
275.5, 0.1859
276, 0.1868
276.5, 0.1876
277, 0.1868
277.5, 0.1862
278, 0.186
278.5, 0.1851
279, 0.1836
279.5, 0.1824
280, 0.1809
280.5, 0.1792
281, 0.1778
281.5, 0.1763
282, 0.1736
282.5, 0.1703
283, 0.1673
283.5, 0.1646
284, 0.162
284.5, 0.1595
285, 0.1571
285.5, 0.1542
286, 0.1515
286.5, 0.1492
287, 0.1468
287.5, 0.1437
288, 0.1412
288.5, 0.1393
289, 0.1363
289.5, 0.1328
290, 0.13
290.5, 0.1276
291, 0.1241
291.5, 0.1192
292, 0.1138
292.5, 0.1089
293, 0.1045
293.5, 0.0993
294, 0.0934
294.5, 0.0883
295, 0.0841
295.5, 0.0793
296, 0.0736
296.5, 0.068
297, 0.0637
297.5, 0.0592
298, 0.0541
298.5, 0.05
299, 0.0463
299.5, 0.0427
300, 0.0409
300.5, 0.0395
301, 0.0365
301.5, 0.0331
302, 0.0304
302.5, 0.0281
303, 0.0264
303.5, 0.0249
304, 0.0225
304.5, 0.0205
305, 0.0192
305.5, 0.0182
306, 0.0174
306.5, 0.0165
307, 0.0155
307.5, 0.0148
308, 0.0145
308.5, 0.0138
309, 0.0129
309.5, 0.013
310, 0.0129
310.5, 0.0124
311, 0.0128
311.5, 0.013
312, 0.0121
312.5, 0.0114
313, 0.012
313.5, 0.0131
314, 0.0132
314.5, 0.0128
315, 0.0131
315.5, 0.0133
316, 0.0134
316.5, 0.0145
317, 0.0161
317.5, 0.0171
318, 0.018
318.5, 0.0184
319, 0.0192
319.5, 0.0208
320, 0.0218
320.5, 0.0225
321, 0.0249
321.5, 0.0272
322, 0.0283
322.5, 0.03
323, 0.0317
323.5, 0.0332
324, 0.0351
324.5, 0.0371
325, 0.038
325.5, 0.0386
326, 0.0399
326.5, 0.0409
327, 0.0412
327.5, 0.0423
328, 0.0447
328.5, 0.0466
329, 0.047
329.5, 0.0465
330, 0.0454
330.5, 0.0449
331, 0.0462
331.5, 0.0483
332, 0.0485
332.5, 0.0478
333, 0.0488
333.5, 0.0521
334, 0.0553
334.5, 0.0569
335, 0.0593
335.5, 0.0629
336, 0.0646
336.5, 0.0658
337, 0.0691
337.5, 0.0729
338, 0.0751
338.5, 0.077
339, 0.08
339.5, 0.084
340, 0.0865
340.5, 0.0871
341, 0.0873
341.5, 0.0887
342, 0.0906
342.5, 0.0908
343, 0.0892
343.5, 0.0872
344, 0.0854
344.5, 0.0828
345, 0.0791
345.5, 0.0747
346, 0.0699
346.5, 0.0652
347, 0.0609
347.5, 0.0567
348, 0.0524
348.5, 0.0475
349, 0.0427
349.5, 0.0384
350, 0.0349
350.5, 0.0312
351, 0.0268
351.5, 0.0227
352, 0.0209
352.5, 0.02
353, 0.0174
353.5, 0.0146
354, 0.0128
354.5, 0.0119
355, 0.0112
355.5, 0.0106
356, 0.01
356.5, 0.009
357, 0.0076
357.5, 0.0071
358, 0.0074
358.5, 0.0076
359, 0.0074
359.5, 0.007
360, 0.0071
360.5, 0.0072
361, 0.007
361.5, 0.0061
362, 0.006
362.5, 0.0065
363, 0.0062
363.5, 0.0058
364, 0.0064
364.5, 0.0064
365, 0.0064
365.5, 0.0076
366, 0.008
366.5, 0.0071
367, 0.0068
367.5, 0.0075
368, 0.0071
368.5, 0.0062
369, 0.0061
369.5, 0.0076
370, 0.009
370.5, 0.0093
371, 0.0094
371.5, 0.0101
372, 0.0101
372.5, 0.0096
373, 0.01
373.5, 0.011
374, 0.0112
374.5, 0.0105
375, 0.0098
375.5, 0.0095
376, 0.0094
376.5, 0.0101
377, 0.0112
377.5, 0.0113
378, 0.0106
378.5, 0.0102
379, 0.0108
379.5, 0.0114
380, 0.0118
380.5, 0.0118
381, 0.012
381.5, 0.0124
382, 0.0126
382.5, 0.0131
383, 0.0142
383.5, 0.0146
384, 0.0134
384.5, 0.0129
385, 0.0132
385.5, 0.0132
386, 0.0132
386.5, 0.0134
387, 0.0129
387.5, 0.0127
388, 0.0132
388.5, 0.0136
389, 0.0129
389.5, 0.0119
390, 0.0121
390.5, 0.0123
391, 0.012
391.5, 0.0121
392, 0.0122
392.5, 0.011
393, 0.0096
393.5, 0.01
394, 0.0113
394.5, 0.011
395, 0.0098
395.5, 0.0092
396, 0.0096
396.5, 0.0104
397, 0.0108
397.5, 0.0108
398, 0.0107
398.5, 0.0105
399, 0.0105
399.5, 0.0106
400, 0.0098
400.5, 0.0086
401, 0.009
401.5, 0.0098
402, 0.01
402.5, 0.0098
403, 0.0092
403.5, 0.0085
404, 0.0085
404.5, 0.0094
405, 0.0099
405.5, 0.0097
406, 0.0098
406.5, 0.0093
407, 0.0084
407.5, 0.0081
408, 0.0081
408.5, 0.0085
409, 0.0095
409.5, 0.01
410, 0.0094
410.5, 0.0085
411, 0.0073
411.5, 0.0066
412, 0.0068
412.5, 0.0074
413, 0.0075
413.5, 0.0074
414, 0.0079
414.5, 0.0081
415, 0.0075
415.5, 0.0073
416, 0.0072
416.5, 0.0072
417, 0.0071
417.5, 0.0071
418, 0.0074
418.5, 0.0079
419, 0.0084
419.5, 0.0086
420, 0.0086
420.5, 0.0082
421, 0.0083
421.5, 0.009
422, 0.0088
422.5, 0.0084
423, 0.0091
423.5, 0.01
424, 0.0102
424.5, 0.01
425, 0.0097
425.5, 0.0095
426, 0.0096
426.5, 0.0103
427, 0.0112
427.5, 0.0121
428, 0.0126
428.5, 0.0129
429, 0.0138
429.5, 0.0144
430, 0.0146
430.5, 0.0148
431, 0.0155
431.5, 0.0164
432, 0.0167
432.5, 0.0172
433, 0.0182
433.5, 0.0196
434, 0.0204
434.5, 0.0209
435, 0.0212
435.5, 0.0221
436, 0.0236
436.5, 0.025
437, 0.0257
437.5, 0.0263
438, 0.0275
438.5, 0.029
439, 0.0302
439.5, 0.0311
440, 0.0325
440.5, 0.0338
441, 0.035
441.5, 0.0361
442, 0.037
442.5, 0.038
443, 0.0395
443.5, 0.0415
444, 0.0436
444.5, 0.0449
445, 0.0458
445.5, 0.0479
446, 0.05
446.5, 0.0516
447, 0.0531
447.5, 0.0549
448, 0.0561
448.5, 0.0572
449, 0.0586
449.5, 0.0605
450, 0.063
450.5, 0.0649
451, 0.0664
451.5, 0.0685
452, 0.071
452.5, 0.0728
453, 0.0745
453.5, 0.0767
454, 0.0789
454.5, 0.0808
455, 0.0829
455.5, 0.0853
456, 0.0872
456.5, 0.0896
457, 0.0931
457.5, 0.0965
458, 0.0982
458.5, 0.1004
459, 0.103
459.5, 0.1055
460, 0.1088
460.5, 0.1124
461, 0.1153
461.5, 0.1183
462, 0.1217
462.5, 0.125
463, 0.129
463.5, 0.1337
464, 0.138
464.5, 0.1414
465, 0.1456
465.5, 0.1511
466, 0.1565
466.5, 0.161
467, 0.1655
467.5, 0.1703
468, 0.1756
468.5, 0.1808
469, 0.1862
469.5, 0.192
470, 0.1982
470.5, 0.2041
471, 0.2099
471.5, 0.2163
472, 0.2221
472.5, 0.2276
473, 0.2342
473.5, 0.2417
474, 0.2486
474.5, 0.2552
475, 0.2624
475.5, 0.2687
476, 0.2745
476.5, 0.2813
477, 0.2883
477.5, 0.2945
478, 0.3007
478.5, 0.308
479, 0.3148
479.5, 0.3206
480, 0.3261
480.5, 0.3322
481, 0.3382
481.5, 0.3441
482, 0.3501
482.5, 0.3561
483, 0.3617
483.5, 0.3674
484, 0.3728
484.5, 0.378
485, 0.3836
485.5, 0.3892
486, 0.3938
486.5, 0.398
487, 0.4032
487.5, 0.4085
488, 0.4127
488.5, 0.4173
489, 0.4225
489.5, 0.4274
490, 0.4326
490.5, 0.438
491, 0.4429
491.5, 0.4475
492, 0.4528
492.5, 0.4591
493, 0.4653
493.5, 0.4711
494, 0.4778
494.5, 0.4857
495, 0.4936
495.5, 0.5013
496, 0.5094
496.5, 0.5176
497, 0.5265
497.5, 0.537
498, 0.5479
498.5, 0.5583
499, 0.5695
499.5, 0.5816
500, 0.5941
500.5, 0.6066
501, 0.6198
501.5, 0.6336
502, 0.6475
502.5, 0.6621
503, 0.6772
503.5, 0.6923
504, 0.7081
504.5, 0.7242
505, 0.7398
505.5, 0.7554
506, 0.772
506.5, 0.7887
507, 0.8045
507.5, 0.8199
508, 0.8354
508.5, 0.8511
509, 0.8666
509.5, 0.8808
510, 0.8944
510.5, 0.9082
511, 0.9215
511.5, 0.9336
512, 0.9451
512.5, 0.9561
513, 0.9661
513.5, 0.975
514, 0.9827
514.5, 0.9888
515, 0.993
515.5, 0.9963
516, 0.9989
516.5, 1
517, 0.9986
517.5, 0.9957
518, 0.992
518.5, 0.9869
519, 0.9794
519.5, 0.9698
520, 0.9587
520.5, 0.9461
521, 0.932
521.5, 0.9167
522, 0.8999
522.5, 0.8806
523, 0.8591
523.5, 0.8368
524, 0.814
524.5, 0.7901
525, 0.7653
525.5, 0.7398
526, 0.7137
526.5, 0.687
527, 0.6599
527.5, 0.6324
528, 0.6048
528.5, 0.5768
529, 0.5489
529.5, 0.5214
530, 0.4943
530.5, 0.4677
531, 0.4418
531.5, 0.4166
532, 0.3923
532.5, 0.3684
533, 0.3452
533.5, 0.3233
534, 0.3025
534.5, 0.2822
535, 0.263
535.5, 0.245
536, 0.2275
536.5, 0.2112
537, 0.1959
537.5, 0.1814
538, 0.1678
538.5, 0.1551
539, 0.1431
539.5, 0.1318
540, 0.1222
540.5, 0.1132
541, 0.1042
541.5, 0.095
542, 0.0868
542.5, 0.08
543, 0.0738
543.5, 0.0675
544, 0.0617
544.5, 0.0566
545, 0.0518
545.5, 0.0474
546, 0.0436
546.5, 0.0398
547, 0.0366
547.5, 0.0336
548, 0.0305
548.5, 0.0279
549, 0.0262
549.5, 0.0242
550, 0.0223
550.5, 0.0208
551, 0.019
551.5, 0.0169
552, 0.0156
552.5, 0.0146
553, 0.0133
553.5, 0.012
554, 0.0111
554.5, 0.0104
555, 0.0097
555.5, 0.0087
556, 0.0078
556.5, 0.0073
557, 0.0069
557.5, 0.0065
558, 0.0062
558.5, 0.0058
559, 0.0054
559.5, 0.0055
560, 0.0056
560.5, 0.0048
561, 0.0042
561.5, 0.0041
562, 0.0037
562.5, 0.0034
563, 0.0034
563.5, 0.0033
564, 0.0028
564.5, 0.0024
565, 0.0021
565.5, 0.0019
566, 0.0013
566.5, 0.0006
567, 0.0007
567.5, 0.0009
568, 0.0005
568.5, 0.0002
569, 0
569.5, -0.0003
570, -0.0004
570.5, -0.0004
571, -0.0006
571.5, -0.0013
572, -0.0019
572.5, -0.0024
573, -0.0023
573.5, -0.0016
574, -0.0011
574.5, -0.0015
575, -0.002
575.5, -0.002
576, -0.0021
576.5, -0.0022
577, -0.002
577.5, -0.0019
578, -0.002
578.5, -0.002
579, -0.0019
579.5, -0.0017
580, -0.0017
580.5, -0.0017
581, -0.0018
581.5, -0.0019
582, -0.0017
582.5, -0.0012
583, -0.0013
583.5, -0.0014
584, -0.0012
584.5, -0.0011
585, -0.0013
585.5, -0.0014
586, -0.0014
586.5, -0.0013
587, -0.0009
587.5, -0.0011
588, -0.0012
588.5, -0.0011
589, -0.0015
589.5, -0.0018
590, -0.0018
590.5, -0.0016
591, -0.0015
591.5, -0.0019
592, -0.0023
592.5, -0.0021
593, -0.0017
593.5, -0.0021
594, -0.0025
594.5, -0.0023
595, -0.0024
595.5, -0.0028
596, -0.0029
596.5, -0.0023
597, -0.0019
597.5, -0.002
598, -0.0022
598.5, -0.0023
599, -0.0018
599.5, -0.0014
600, -0.0017
600.5, -0.0022
601, -0.0025
601.5, -0.0026
602, -0.0025
602.5, -0.0023
603, -0.0021
603.5, -0.0014
604, -0.0012
604.5, -0.0019
605, -0.002
605.5, -0.0012
606, -0.0012
606.5, -0.0022
607, -0.0026
607.5, -0.0018
608, -0.0008
608.5, -0.0007
609, -0.001
609.5, -0.001
610, -0.001
610.5, -0.0015
611, -0.0019
611.5, -0.0018
612, -0.0017
612.5, -0.0016
613, -0.0016
613.5, -0.0019
614, -0.0023
614.5, -0.0023
615, -0.002
615.5, -0.0018
616, -0.002
616.5, -0.0023
617, -0.0022
617.5, -0.0017
618, -0.0018
618.5, -0.0024
619, -0.0028
619.5, -0.0023
620, -0.0019
620.5, -0.002
621, -0.0023
621.5, -0.0027
622, -0.0029
622.5, -0.0029
623, -0.0026
623.5, -0.0025
624, -0.0025
624.5, -0.0026
625, -0.0032
625.5, -0.0038
626, -0.0037
626.5, -0.0031
627, -0.0027
627.5, -0.0024
628, -0.0021
628.5, -0.0022
629, -0.0028
629.5, -0.0032
630, -0.0032
630.5, -0.0027
631, -0.0022
631.5, -0.0023
632, -0.0026
632.5, -0.0028
633, -0.0026
633.5, -0.0019
634, -0.0015
634.5, -0.0019
635, -0.0019
635.5, -0.0015
636, -0.0014
636.5, -0.0016
637, -0.0016
637.5, -0.0018
638, -0.0024
638.5, -0.0024
639, -0.002
639.5, -0.0016
640, -0.0012
640.5, -0.0011
641, -0.0018
641.5, -0.0022
642, -0.0015
642.5, -0.0008
643, -0.0008
643.5, -0.0014
644, -0.0014
644.5, -0.0009
645, -0.001
645.5, -0.0013
646, -0.0013
646.5, -0.0009
647, -0.0013
647.5, -0.0023
648, -0.0025
648.5, -0.0016
649, -0.0013
649.5, -0.0014
650, -0.0013


