# "wavelength [nm]", "intensity/spectrum"
493, 0.002
494, 0.003
495, 0.003
496, 0.004
497, 0.005
498, 0.006
499, 0.007
500, 0.009
501, 0.011
502, 0.013
503, 0.016
504, 0.02
505, 0.024
506, 0.029
507, 0.036
508, 0.044
509, 0.053
510, 0.064
511, 0.077
512, 0.091
513, 0.108
514, 0.127
515, 0.149
516, 0.174
517, 0.203
518, 0.235
519, 0.27
520, 0.31
521, 0.352
522, 0.399
523, 0.448
524, 0.501
525, 0.554
526, 0.608
527, 0.665
528, 0.719
529, 0.771
530, 0.817
531, 0.859
532, 0.896
533, 0.929
534, 0.957
535, 0.977
536, 0.991
537, 0.999
538, 1
539, 0.997
540, 0.988
541, 0.974
542, 0.957
543, 0.936
544, 0.913
545, 0.888
546, 0.859
547, 0.83
548, 0.8
549, 0.769
550, 0.739
551, 0.709
552, 0.679
553, 0.65
554, 0.623
555, 0.597
556, 0.572
557, 0.549
558, 0.525
559, 0.505
560, 0.485
561, 0.466
562, 0.448
563, 0.429
564, 0.412
565, 0.395
566, 0.381
567, 0.367
568, 0.354
569, 0.341
570, 0.33
571, 0.319
572, 0.309
573, 0.302
574, 0.293
575, 0.287
576, 0.281
577, 0.274
578, 0.267
579, 0.26
580, 0.252
581, 0.245
582, 0.237
583, 0.23
584, 0.224
585, 0.216
586, 0.209
587, 0.201
588, 0.193
589, 0.187
590, 0.181
591, 0.175
592, 0.169
593, 0.163
594, 0.157
595, 0.151
596, 0.144
597, 0.138
598, 0.132
599, 0.126
600, 0.12
601, 0.115
602, 0.11
603, 0.106
604, 0.101
605, 0.097
606, 0.093
607, 0.088
608, 0.084
609, 0.08
610, 0.076
611, 0.073
612, 0.069
613, 0.066
614, 0.063
615, 0.061
616, 0.058
617, 0.056
618, 0.054
619, 0.051
620, 0.049
621, 0.047
622, 0.045
623, 0.043
624, 0.041
625, 0.039
626, 0.038
627, 0.036
628, 0.035
629, 0.033
630, 0.032
631, 0.031
632, 0.03
633, 0.029
634, 0.028
635, 0.027
636, 0.026
637, 0.025
638, 0.024
639, 0.023
640, 0.022
641, 0.021
642, 0.021
643, 0.02
644, 0.019
645, 0.018
646, 0.017
647, 0.017
648, 0.016
649, 0.015
650, 0.015
651, 0.014
652, 0.014
653, 0.013
654, 0.013
655, 0.012
656, 0.011
657, 0.011
658, 0.01
659, 0.01
660, 0.01
661, 0.009
662, 0.009
663, 0.009
664, 0.008
665, 0.008
666, 0.008
667, 0.008
668, 0.007
669, 0.007
670, 0.007
671, 0.006
672, 0.006
673, 0.006
674, 0.006
675, 0.006
676, 0.005
677, 0.005
678, 0.005
679, 0.004
680, 0.004
681, 0.004
682, 0.004
683, 0.004
684, 0.004
685, 0.004
686, 0.004
687, 0.003
688, 0.003
689, 0.003
690, 0.003
691, 0.003
692, 0.003
693, 0.003
694, 0.003
695, 0.003
696, 0.003
697, 0.003
698, 0.002
699, 0.002


