# "wavelength [nm]", "intensity/spectrum"
600, 0.001
601, 0.001
602, 0.001
603, 0.001
604, 0.001
605, 0.001
606, 0.001
607, 0.002
608, 0.002
609, 0.002
610, 0.002
611, 0.003
612, 0.003
613, 0.003
614, 0.004
615, 0.005
616, 0.005
617, 0.006
618, 0.007
619, 0.008
620, 0.009
621, 0.011
622, 0.012
623, 0.014
624, 0.016
625, 0.019
626, 0.022
627, 0.025
628, 0.029
629, 0.033
630, 0.038
631, 0.043
632, 0.05
633, 0.056
634, 0.064
635, 0.073
636, 0.083
637, 0.094
638, 0.107
639, 0.122
640, 0.138
641, 0.157
642, 0.178
643, 0.201
644, 0.228
645, 0.256
646, 0.287
647, 0.32
648, 0.354
649, 0.39
650, 0.428
651, 0.467
652, 0.508
653, 0.55
654, 0.593
655, 0.636
656, 0.678
657, 0.719
658, 0.759
659, 0.797
660, 0.832
661, 0.865
662, 0.894
663, 0.92
664, 0.942
665, 0.961
666, 0.976
667, 0.988
668, 0.995
669, 0.999
670, 1
671, 0.998
672, 0.994
673, 0.988
674, 0.981
675, 0.973
676, 0.963
677, 0.953
678, 0.941
679, 0.929
680, 0.916
681, 0.901
682, 0.886
683, 0.869
684, 0.852
685, 0.834
686, 0.817
687, 0.801
688, 0.787
689, 0.773
690, 0.761
691, 0.748
692, 0.737
693, 0.727
694, 0.716
695, 0.706
696, 0.696
697, 0.685
698, 0.673
699, 0.662
700, 0.651
701, 0.64
702, 0.63
703, 0.619
704, 0.608
705, 0.596
706, 0.585
707, 0.573
708, 0.562
709, 0.552
710, 0.543
711, 0.534
712, 0.526
713, 0.518
714, 0.51
715, 0.502
716, 0.495
717, 0.488
718, 0.481
719, 0.474
720, 0.466
721, 0.459
722, 0.451
723, 0.444
724, 0.436
725, 0.428
726, 0.421
727, 0.414
728, 0.407
729, 0.401
730, 0.394
731, 0.388
732, 0.381
733, 0.374
734, 0.368
735, 0.362
736, 0.356
737, 0.351
738, 0.345
739, 0.34
740, 0.334
741, 0.328
742, 0.321
743, 0.315
744, 0.308
745, 0.302
746, 0.295
747, 0.289
748, 0.283
749, 0.276
750, 0.271
751, 0.265
752, 0.259
753, 0.253
754, 0.247
755, 0.242
756, 0.236
757, 0.231
758, 0.226
759, 0.221
760, 0.216
761, 0.211
762, 0.206
763, 0.202
764, 0.198
765, 0.194
766, 0.189
767, 0.185
768, 0.18
769, 0.175
770, 0.171
771, 0.166
772, 0.161
773, 0.157
774, 0.154
775, 0.15
776, 0.146
777, 0.142
778, 0.139
779, 0.135
780, 0.131
781, 0.128
782, 0.125
783, 0.122
784, 0.12
785, 0.117
786, 0.114
787, 0.112
788, 0.11
789, 0.107
790, 0.106
791, 0.104
792, 0.102
793, 0.1
794, 0.098
795, 0.095
796, 0.093
797, 0.091
798, 0.089
799, 0.088
800, 0.086
801, 0.082
802, 0.081
803, 0.079
804, 0.077
804, 0.076
805, 0.074
806, 0.072
807, 0.071
808, 0.068
809, 0.067
810, 0.065
811, 0.064
812, 0.061
813, 0.06
814, 0.059
815, 0.057
816, 0.055
817, 0.054
818, 0.053
819, 0.051
820, 0.049
821, 0.048
822, 0.047
823, 0.046
824, 0.044
825, 0.043
826, 0.042
827, 0.041
828, 0.04
829, 0.039
830, 0.038
831, 0.037
832, 0.036
833, 0.035
834, 0.034
835, 0.033
836, 0.032
837, 0.031
838, 0.031
839, 0.029
840, 0.029
841, 0.028
842, 0.028
843, 0.026
844, 0.026
845, 0.025
846, 0.024
847, 0.024
848, 0.023
849, 0.023
850, 0.022
851, 0.021
852, 0.021
853, 0.02
853, 0.02
854, 0.02
855, 0.019
856, 0.019
857, 0.018
858, 0.018
859, 0.017
860, 0.017
861, 0.016
861, 0.016
862, 0.016
863, 0.015
864, 0.015
865, 0.014
866, 0.014
867, 0.014
868, 0.014
869, 0.013
870, 0.013
871, 0.012
872, 0.012
873, 0.012
874, 0.011
875, 0.011
876, 0.011
877, 0.01
878, 0.01
879, 0.01
880, 0.01
881, 0.009
882, 0.009
883, 0.009
884, 0.008
885, 0.008
886, 0.008
887, 0.008
888, 0.008
889, 0.007
890, 0.007
891, 0.007
892, 0.007
893, 0.007
894, 0.006
895, 0.006
896, 0.006
897, 0.006
898, 0.006
899, 0.006
900, 0.005
901, 0.005
902, 0.005
903, 0.005
904, 0.005
905, 0.005
906, 0.005
907, 0.004
908, 0.004
909, 0.004
910, 0.004
911, 0.004
912, 0.004
913, 0.004
914, 0.004
915, 0.003
916, 0.003
917, 0.003
918, 0.003
919, 0.003
920, 0.003
921, 0.003
922, 0.003
923, 0.003
924, 0.003
925, 0.003
926, 0.002
927, 0.002
928, 0.002
929, 0.002
930, 0.002
931, 0.002
932, 0.002
933, 0.002
934, 0.002
935, 0.002
936, 0.002
937, 0.002
938, 0.002
939, 0.002
940, 0.002


