# "wavelength [nm]", "intensity/spectrum"
385.218, 0.46335
391.267, 0.476919
396.642, 0.490494
402.013, 0.506794
407.385, 0.523094
412.078, 0.542125
414.738, 0.569348
416.053, 0.59386
417.365, 0.621096
418.002, 0.648338
418.64, 0.67558
419.951, 0.702816
420.589, 0.730058
421.226, 0.7573
422.538, 0.784536
424.579, 0.770894
425.289, 0.74364
426, 0.716385
426.711, 0.689131
427.422, 0.661876
428.133, 0.634622
428.17, 0.607374
428.881, 0.580119
429.592, 0.552865
430.303, 0.52561
430.354, 0.487463
431.065, 0.460208
432.45, 0.432948
433.161, 0.405693
434.546, 0.378433
435.253, 0.353903
435.964, 0.326649
437.349, 0.299388
438.06, 0.272134
439.445, 0.244873
440.156, 0.217619
441.541, 0.190358
442.926, 0.163098
444.308, 0.138562
445.693, 0.111302
447.752, 0.084035
450.482, 0.059487
453.885, 0.0349329
458.627, 0.0185411
464.705, 0.0103115
472.132, 0.00206965
489.657, 0.00463527
506.514, 0.00175736
526.739, 0.00157367
541.56, 0.00961344
547.617, 0.0177328
554.347, 0.0258461
560.407, 0.0312406
567.145, 0.0339042
573.894, 0.0283933
579.965, 0.0256134
586.711, 0.0228273
592.767, 0.0309467
598.82, 0.0417909
604.869, 0.05536
610.244, 0.0689351
615.615, 0.0852351
620.987, 0.101535
626.354, 0.12056
630.374, 0.139597
633.052, 0.153197
636.393, 0.174965
639.731, 0.199457
643.069, 0.22395
645.732, 0.248449
648.396, 0.272948
650.382, 0.300178
652.371, 0.324683
654.357, 0.351913
656.346, 0.376418
657.658, 0.403654
658.97, 0.43089
659.607, 0.458133
660.244, 0.485375
660.882, 0.512617
661.519, 0.539859
662.157, 0.567101
662.757, 0.621592
662.794, 0.594343
663.395, 0.648834
663.996, 0.703324
664.032, 0.676076
664.596, 0.757815
664.633, 0.730566
665.234, 0.785057
665.875, 0.809574
667.252, 0.787763
667.289, 0.760515
668, 0.733261
668.037, 0.706012
668.748, 0.678758
668.784, 0.65151
669.495, 0.624255
669.532, 0.597007
669.569, 0.569759
670.28, 0.542504
670.317, 0.515256
671.027, 0.488002
671.064, 0.460753
671.101, 0.433505
671.812, 0.406251
671.849, 0.379002
672.559, 0.351748
672.596, 0.3245
673.307, 0.297245
674.018, 0.269991
674.729, 0.242736
674.766, 0.215488
676.151, 0.188228
677.536, 0.160967
678.917, 0.136431
680.976, 0.109165
683.032, 0.0846228
686.436, 0.0600687
690.51, 0.0382333
694.581, 0.0191228


