# "wavelength [nm]", "intensity/spectrum"
300, 0.250696
301, 0.253698
302, 0.257364
303, 0.261735
304, 0.2673
305, 0.2741
306, 0.281784
307, 0.290395
308, 0.301033
309, 0.31221
310, 0.325233
311, 0.340782
312, 0.357518
313, 0.375845
314, 0.396291
315, 0.41762
316, 0.439033
317, 0.46125
318, 0.485714
319, 0.509119
320, 0.533319
321, 0.556503
322, 0.580261
323, 0.603444
324, 0.626982
325, 0.649768
326, 0.671362
327, 0.69278
328, 0.713314
329, 0.737955
330, 0.755884
331, 0.772753
332, 0.790417
333, 0.806845
334, 0.820093
335, 0.835063
336, 0.846147
337, 0.859263
338, 0.87017
339, 0.882314
340, 0.891323
341, 0.90064
342, 0.911769
343, 0.919673
344, 0.928549
345, 0.937161
346, 0.944756
347, 0.951071
348, 0.958578
349, 0.964893
350, 0.970943
351, 0.975403
352, 0.979863
353, 0.984853
354, 0.987812
355, 0.991786
356, 0.994877
357, 0.997483
358, 0.999293
359, 1
360, 0.998234
361, 0.995672
362, 0.992758
363, 0.987414
364, 0.980216
365, 0.971694
366, 0.961493
367, 0.948554
368, 0.937205
369, 0.921351
370, 0.907308
371, 0.891278
372, 0.873526
373, 0.854537
374, 0.837713
375, 0.817576
376, 0.798234
377, 0.776551
378, 0.755575
379, 0.732303
380, 0.711548
381, 0.687127
382, 0.661603
383, 0.635593
384, 0.605432
385, 0.570148
386, 0.539898
387, 0.509516
388, 0.477766
389, 0.4465
390, 0.41501
391, 0.383926
392, 0.352219
393, 0.322499
394, 0.29331
395, 0.26518
396, 0.2397
397, 0.215544
398, 0.192625
399, 0.171252
400, 0.152352
401, 0.13429
402, 0.118834
403, 0.103599
404, 0.0904394
405, 0.0790461
406, 0.0688894
407, 0.0593509
408, 0.0506514
409, 0.044469
410, 0.0385074
411, 0.0324133
412, 0.0287922
413, 0.0249503
414, 0.0213292
415, 0.0181055
416, 0.0155884
417, 0.0133804
418, 0.01104
419, 0.00918525
420, 0.0075955
421, 0.00675646
422, 0.00587326
423, 0.00529918
424, 0.00481342
425, 0.00353279
426, 0.00331199
427, 0.00251711
428, 0.00216383
429, 0.0015456
430, 0.0013248
431, 0.00105984
432, 0.000353279
433, 4.41599e-05
434, -0.000304703
435, -0.00013248
436, -0.000176639
437, -0.000794877
438, -0.00013248
439, -0.00114816
440, -0.000971517
441, -0.00119232
442, -0.000794877
443, -0.000304703
444, -0.00145728
445, -0.0013248
446, -0.00123648
447, -0.0013248
448, -0.00150144
449, -0.00198719
450, -0.00189887


