# "wavelength [nm]", "intensity/spectrum"
500, 5.72714
501, 5.93516
502, 6.31559
503, 6.81784
504, 7.31447
505, 7.99475
506, 8.66754
507, 9.37594
508, 10.0618
509, 10.8021
510, 11.5967
511, 12.4344
512, 13.2496
513, 14.1061
514, 14.985
515, 16.0551
516, 17.157
517, 18.1597
518, 19.3028
519, 20.5022
520, 21.6829
521, 22.9198
522, 24.3441
523, 25.6559
524, 26.949
525, 28.3546
526, 29.7414
527, 31.2406
528, 32.8523
529, 34.5015
530, 35.982
531, 37.7436
532, 39.4303
533, 41.1169
534, 42.8973
535, 44.6589
536, 46.3268
537, 48.2196
538, 50.075
539, 51.8928
540, 53.6544
541, 55.4535
542, 57.2526
543, 59.0705
544, 60.9258
545, 62.5937
546, 64.3553
547, 66.0795
548, 67.6912
549, 69.3403
550, 70.8771
551, 72.5075
552, 73.9693
553, 75.3373
554, 76.9678
555, 78.3733
556, 79.7601
557, 81.0345
558, 82.1402
559, 83.4333
560, 84.4078
561, 85.5697
562, 86.8253
563, 87.8373
564, 88.7556
565, 89.6739
566, 90.4235
567, 91.3043
568, 91.9978
569, 92.8973
570, 93.6282
571, 94.3778
572, 95.0712
573, 95.4835
574, 96.1769
575, 96.6267
576, 97.47
577, 97.8636
578, 98.1072
579, 98.5382
580, 98.9318
581, 99.3816
582, 99.7751
583, 99.925
584, 99.9813
585, 99.9625
586, 100
587, 99.7939
588, 99.8313
589, 99.8126
590, 99.6627
591, 99.5315
592, 99.2129
593, 98.8006
594, 98.5195
595, 97.9385
596, 97.4513
597, 96.9828
598, 96.3268
599, 95.7646
600, 95.1274
601, 94.6214
602, 93.928
603, 93.1972
604, 92.3913
605, 91.548
606, 90.2549
607, 89.449
608, 88.7369
609, 87.4625
610, 86.3756
611, 85.4198
612, 84.1829
613, 83.1522
614, 82.0652
615, 80.9033
616, 79.6477
617, 78.3358
618, 77.024
619, 75.8246
620, 74.5877
621, 73.0697
622, 71.8891
623, 70.7459
624, 69.2654
625, 67.916
626, 66.5292
627, 65.2549
628, 63.9618
629, 62.4813
630, 61.1507
631, 59.8763
632, 58.5832
633, 57.1777
634, 55.6972
635, 54.554
636, 53.2234
637, 51.9115
638, 50.6184
639, 49.4378
640, 48.1447
641, 46.9453
642, 45.7459
643, 44.4903
644, 43.2909
645, 42.1664
646, 40.9295
647, 39.9363
648, 38.943
649, 37.9685
650, 36.8628
651, 35.907
652, 34.8013
653, 33.7144
654, 32.6837
655, 31.934
656, 30.997
657, 29.985
658, 29.1417
659, 28.2421
660, 27.3613
661, 26.6679
662, 25.8621
663, 25.0375
664, 24.2691
665, 23.5382
666, 22.8073
667, 22.2076
668, 21.5517
669, 20.9145
670, 20.3148
671, 19.6964
672, 19.1154
673, 18.5532
674, 18.0735
675, 17.3351
676, 16.934
677, 16.3699
678, 15.7984
679, 15.3448
680, 14.8351
681, 14.2241
682, 13.8025
683, 13.4089
684, 13.1091
685, 12.7436
686, 12.2882
687, 11.9472
688, 11.6679
689, 11.3906
690, 10.9989
691, 10.6953
692, 10.4404
693, 10.1574
694, 9.96064
695, 9.66454
696, 9.38343
697, 9.16042
698, 8.92991
699, 8.66754
700, 8.36769
701, 8.17654
702, 7.95165
703, 7.73988
704, 7.45127
705, 7.29198
706, 7.00337
707, 6.81972
708, 6.72039
709, 6.48051
710, 6.23876
711, 6.1057
712, 5.93141
713, 5.73838
714, 5.59033
715, 5.48726
716, 5.28111
717, 5.20427
718, 5.0581
719, 4.95315
720, 4.83133
721, 4.75949
722, 4.66891
723, 4.59082
724, 4.50961
725, 4.4284
726, 4.34719
727, 4.26598
728, 4.18477
729, 4.10356
730, 4.02234
731, 3.94113
732, 3.85992
733, 3.77871
734, 3.6975
735, 3.61629
736, 3.53508
737, 3.45387
738, 3.37266
739, 3.29144
740, 3.21023
741, 3.12902
742, 3.04781
743, 2.9666
744, 2.90292
745, 2.64805
746, 2.54873
747, 2.4569
748, 2.46814
749, 2.41754
750, 2.3557
751, 2.31259
752, 2.32759
753, 2.21702
754, 2.1533
755, 2.13831
756, 2.07834
757, 2.06709
758, 1.96214
759, 1.96777
760, 1.91154
761, 1.90217
762, 1.83696
763, 1.81559
764, 1.79085
765, 1.72695
766, 1.71889
767, 1.67747
768, 1.67635
769, 1.58939
770, 1.53561
771, 1.58133
772, 1.53336
773, 1.53973
774, 1.51949
775, 1.54423
776, 1.45221
777, 1.43778
778, 1.41623
779, 1.41848
780, 1.41304
781, 1.37575
782, 1.43103
783, 1.3675
784, 1.31484
785, 1.31034
786, 1.27493
787, 1.32084
788, 1.22789
789, 1.25112
790, 1.2575
791, 1.22301
792, 1.18516
793, 1.1488
794, 1.15142
795, 1.13643
796, 1.13962
797, 1.16286
798, 1.10401
799, 1.11863
800, 1.06034


