# "wavelength [nm]", "intensity/spectrum"
445, 0.0147401
446, 0.0172402
447, 0.0229602
448, 0.0296203
449, 0.0384304
450, 0.0475805
451, 0.0605806
452, 0.0757408
453, 0.097791
454, 0.120591
455, 0.149051
456, 0.181272
457, 0.217652
458, 0.261333
459, 0.309523
460, 0.363534
461, 0.417614
462, 0.475775
463, 0.534705
464, 0.597306
465, 0.661457
466, 0.722377
467, 0.778428
468, 0.830208
469, 0.882689
470, 0.922349
471, 0.95275
472, 0.9726
473, 0.98797
474, 0.99803
475, 1
476, 0.98809
477, 0.97854
478, 0.95906
479, 0.937449
480, 0.913779
481, 0.892459
482, 0.865679
483, 0.846208
484, 0.825988
485, 0.804228
486, 0.787118
487, 0.772238
488, 0.754148
489, 0.746997
490, 0.731467
491, 0.719837
492, 0.718887
493, 0.712367
494, 0.705797
495, 0.705467
496, 0.702537
497, 0.704807
498, 0.702247
499, 0.696907
500, 0.692687
501, 0.691397
502, 0.682947
503, 0.682527
504, 0.673277
505, 0.666887
506, 0.654987
507, 0.647296
508, 0.638786
509, 0.616156
510, 0.603246
511, 0.589816
512, 0.567346
513, 0.551696
514, 0.535215
515, 0.516365
516, 0.502125
517, 0.484005
518, 0.465725
519, 0.452375
520, 0.441254
521, 0.426704
522, 0.414644
523, 0.402024
524, 0.389304
525, 0.375664
526, 0.370624
527, 0.357924
528, 0.348993
529, 0.343993
530, 0.333583
531, 0.328643
532, 0.316753
533, 0.311773
534, 0.305153
535, 0.295813
536, 0.286923
537, 0.284573
538, 0.274993
539, 0.272553
540, 0.264733
541, 0.257093
542, 0.250803
543, 0.246182
544, 0.241262
545, 0.230852
546, 0.224702
547, 0.215272
548, 0.209102
549, 0.198632
550, 0.191342
551, 0.183782
552, 0.175742
553, 0.167202
554, 0.162132
555, 0.152762
556, 0.147531
557, 0.140991
558, 0.134601
559, 0.126991
560, 0.121601
561, 0.115381
562, 0.111071
563, 0.105041
564, 0.099931
565, 0.096271
566, 0.0892509
567, 0.0859809
568, 0.0812608
569, 0.0774608
570, 0.0739907
571, 0.0708107
572, 0.0679907
573, 0.0648106
574, 0.0624206
575, 0.0591906
576, 0.0577506
577, 0.0544805
578, 0.0520105
579, 0.0506505
580, 0.0489205
581, 0.0450105
582, 0.0437104
583, 0.0425104
584, 0.0412504
585, 0.0396804
586, 0.0370304
587, 0.0352004
588, 0.0363904
589, 0.0343203
590, 0.0326903
591, 0.0328503
592, 0.0305603
593, 0.0302603
594, 0.0281503
595, 0.0283203
596, 0.0265003
597, 0.0245702
598, 0.0243202
599, 0.0243702
600, 0.0235402


