# "wavelength [nm]", "intensity/spectrum"
376, 0.36116
377, 0.36622
378, 0.36936
379, 0.37534
380, 0.37861
381, 0.38116
382, 0.38487
383, 0.38927
384, 0.39606
385, 0.4017
386, 0.40549
387, 0.40943
388, 0.41652
389, 0.4298
390, 0.44107
391, 0.44788
392, 0.45355
393, 0.46343
394, 0.47359
395, 0.48359
396, 0.49405
397, 0.50673
398, 0.51914
399, 0.53296
400, 0.54375
401, 0.5565
402, 0.57389
403, 0.59118
404, 0.60515
405, 0.61492
406, 0.63097
407, 0.64693
408, 0.65896
409, 0.67027
410, 0.68759
411, 0.70418
412, 0.71562
413, 0.72253
414, 0.73323
415, 0.74791
416, 0.76693
417, 0.78039
418, 0.79632
419, 0.80592
420, 0.82399
421, 0.8362
422, 0.85309
423, 0.86853
424, 0.88821
425, 0.9126
426, 0.92502
427, 0.93989
428, 0.94992
429, 0.96349
430, 0.97561
431, 0.98199
432, 0.9887
433, 0.9958
434, 0.99847
435, 1
436, 0.99475
437, 0.98741
438, 0.98317
439, 0.97315
440, 0.96284
441, 0.95466
442, 0.95206
443, 0.94889
444, 0.93997
445, 0.93033
446, 0.92567
447, 0.92461
448, 0.92292
449, 0.91863
450, 0.91513
451, 0.91514
452, 0.91463
453, 0.90915
454, 0.89895
455, 0.89595
456, 0.88457
457, 0.8693
458, 0.84747
459, 0.82696
460, 0.80545
461, 0.7792
462, 0.74029
463, 0.69571
464, 0.64383
465, 0.6039
466, 0.5581
467, 0.50649
468, 0.46024
469, 0.41322
470, 0.37529
471, 0.32501
472, 0.28122
473, 0.24638
474, 0.21691
475, 0.19034
476, 0.159
477, 0.13599
478, 0.1208
479, 0.10971
480, 0.09765
481, 0.08134
482, 0.07072
483, 0.06073
484, 0.05853
485, 0.05598
486, 0.05333
487, 0.05194
488, 0.04471
489, 0.03751
490, 0.03509
491, 0.03586
492, 0.03469
493, 0.031
494, 0.02889
495, 0.02831
496, 0.02718
497, 0.02232
498, 0.01911
499, 0


