# "wavelength [nm]", "intensity/spectrum"
251.723, 0.215139
258.46, 0.23506
264.225, 0.262948
268.048, 0.302789
271.874, 0.338645
274.731, 0.378486
276.627, 0.414343
279.484, 0.454183
281.38, 0.49004
283.272, 0.52988
285.164, 0.569721
286.091, 0.609562
287.983, 0.649402
288.91, 0.689243
290.806, 0.7251
291.74, 0.756972
292.667, 0.796813
293.594, 0.836653
295.486, 0.876494
296.413, 0.916335
298.305, 0.956175
300.201, 0.992032
304.089, 0.964143
306.058, 0.924303
309.038, 0.836653
312.022, 0.74502
313.03, 0.701195
314.999, 0.661355
316.968, 0.621514
318.933, 0.585657
320.902, 0.545817
324.797, 0.50996
332.546, 0.482072
336.442, 0.446215
339.372, 0.410359
341.341, 0.370518
343.31, 0.330677
345.279, 0.290837
347.244, 0.25498
350.205, 0.187251
354.101, 0.151394
357.997, 0.115538
363.819, 0.0836653
370.603, 0.0557769
379.309, 0.0358566
388.012, 0.0199203
396.707, 0.0119522
406.359, 0.0119522
416.012, 0.0119522
425.66, 0.0159363
435.309, 0.0199203
443.985, 0.0318725
453.626, 0.0438247
462.301, 0.0557769
470.977, 0.0677291
479.645, 0.0876494
487.348, 0.10757
496.02, 0.123506
504.696, 0.135458
514.34, 0.143426
523.989, 0.14741
532.68, 0.143426
541.383, 0.12749
549.128, 0.103586
553.004, 0.0876494
560.749, 0.063745
569.456, 0.0438247
577.189, 0.0318725
586.853, 0.0199203
596.506, 0.0199203


