# "wavelength [nm]", "intensity/spectrum"
303.301, 0.0817302
305.056, 0.103379
306.815, 0.131226
308.282, 0.155981
309.75, 0.183836
311.217, 0.208591
312.976, 0.236437
314.154, 0.264299
315.621, 0.289054
317.089, 0.316908
318.558, 0.344762
320.024, 0.369517
321.493, 0.397371
323.25, 0.422119
325.007, 0.446868
327.053, 0.46851
328.81, 0.493257
330.565, 0.514907
332.901, 0.53654
334.946, 0.558182
336.992, 0.579826
339.035, 0.598369
341.369, 0.616903
343.702, 0.632341
346.036, 0.650876
348.37, 0.669413
350.704, 0.687947
353.036, 0.703385
355.37, 0.72192
357.994, 0.740449
360.326, 0.755886
362.658, 0.771322
364.704, 0.792964
367.04, 0.814599
369.085, 0.836241
371.129, 0.854784
373.174, 0.876426
375.222, 0.901167
376.977, 0.922816
378.734, 0.947563
380.491, 0.972312
382.825, 0.990849
385.732, 0.996974
388.638, 1
391.541, 0.999929
394.149, 0.990567
396.461, 0.971916
398.19, 0.95018
399.334, 0.922262
400.479, 0.894344
401.622, 0.863325
402.476, 0.835413
403.621, 0.807495
404.473, 0.776484
406.201, 0.75165
407.93, 0.729914
410.826, 0.717447
413.435, 0.711185
416.343, 0.71731
418.677, 0.735846
421.295, 0.745078
423.901, 0.732617
426.505, 0.717058
428.524, 0.695315
430.836, 0.676664
432.856, 0.654922
434.877, 0.636278
437.187, 0.614528
439.208, 0.595884
441.226, 0.571043
443.245, 0.5493
444.972, 0.524466
447.284, 0.505815
450.188, 0.505742
452.795, 0.496381
454.815, 0.474638
456.836, 0.455995
459.736, 0.449725
462.353, 0.455858
464.973, 0.468189
467.019, 0.489831
469.636, 0.495964
471.363, 0.47113
472.51, 0.446309
474.237, 0.421475
474.801, 0.393571
476.236, 0.365645
477.963, 0.34081
480.277, 0.325258
482.881, 0.309698
484.608, 0.284864
486.335, 0.26003
488.062, 0.235196
489.79, 0.210362
491.809, 0.188619
493.828, 0.166875
495.848, 0.145134
497.869, 0.12649
500.179, 0.10474


