# "wavelength [nm]", "intensity/spectrum", "2"
485, 3.78815, 0
486, 3.92743, 0
487, 4.32175, 0
488, 5.19745, 0
489, 6.33799, 0
490, 7.69795, 0
491, 9.39158, 0
492, 11.3153, 0
493, 13.414, 0
494, 15.9199, 0
495, 19.0153, 0
496, 22.552, 0
497, 26.3913, 0
498, 30.4321, 0
499, 34.7937, 0
500, 39.8668, 0
501, 45.068, 0
502, 50.0903, 0
503, 55.0875, 0
504, 60.1466, 0
505, 65.4695, 0
506, 70.7358, 0
507, 75.3358, 0
508, 79.7285, 0
509, 83.7295, 0
510, 87.4406, 0
511, 90.9344, 0
512, 93.5806, 0
513, 95.8436, 0
514, 97.5192, 0
515, 98.9348, 0
516, 99.7616, 0
517, 100, 0
518, 99.5764, 0
519, 99.1003, 0
520, 98.4013, 0
521, 97.182, 0
522, 95.3999, 0
523, 93.5891, 0
524, 91.5931, 0
525, 89.2959, 0
526, 86.9706, 0
527, 84.4696, 0
528, 82.0278, 0
529, 79.4143, 0
530, 76.797, 0
531, 74.0827, 0
532, 71.3354, 0
533, 68.9286, 0
534, 66.6009, 0
535, 64.0978, 0
536, 61.8333, 0
537, 59.6108, 0
538, 57.3749, 0
539, 55.4372, 0
540, 53.1756, 0
541, 51.4854, 0
542, 49.7223, 0
543, 48.2746, 0
544, 46.7495, 0
545, 45.4872, 0
546, 44.2036, 0
547, 42.8422, 0
548, 41.7063, 0
549, 40.5601, 0
550, 39.435, 0
551, 38.5836, 0
552, 37.4452, 0
553, 36.4262, 0
554, 35.4668, 0
555, 34.5588, 0
556, 33.8193, 0
557, 32.821, 0
558, 31.7862, 0
559, 31.0641, 0
560, 30.152, 0
561, 29.339, 0
562, 28.5611, 0
563, 27.6214, 0
564, 26.7477, 0
565, 25.7453, 0
566, 25.1094, 0
567, 24.2464, 0
568, 23.5031, 0
569, 22.6925, 0
570, 21.684, 0
571, 20.8988, 0
572, 20.1159, 0
573, 19.4753, 0
574, 18.6576, 0
575, 18.0609, 0
576, 17.3245, 0
577, 16.7026, 0
578, 15.988, 0
579, 15.39, 0
580, 14.9718, 0
581, 14.4591, 0
582, 13.8862, 0
583, 13.407, 0
584, 12.8741, 0
585, 12.3457, 0
586, 11.8878, 0
587, 11.4055, 0
588, 10.9363, 0
589, 10.5932, 0
590, 10.2797, 0
591, 9.84762, 0
592, 9.43809, 0
593, 9.11013, 0
594, 8.7797, 0
595, 8.43765, 0
596, 8.28441, 0
597, 7.92032, 0
598, 7.68435, 0
599, 7.30527, 0
600, 7.08483, 0
601, 6.96351, 0
602, 6.7048, 0
603, 6.4671, 0
604, 6.28263, 0
605, 6.04991, 0
606, 5.84743, 0
607, 5.61204, 0
608, 5.51799, 0
609, 5.33204, 0
610, 5.12639, 0
611, 4.93952, 0
612, 4.82187, 0
613, 4.64065, 0
614, 4.45506, 0
615, 4.29045, 0
616, 4.11331, 0
617, 4.0324, 0
618, 3.87276, 0
619, 3.72804, 0
620, 3.59754, 0
621, 3.44725, 0
622, 3.2959, 0
623, 3.22887, 0
624, 3.08617, 0
625, 2.98273, 0
626, 2.92028, 0
627, 2.78619, 0
628, 2.7751, 0
629, 2.65654, 0
630, 2.59467, 0
631, 2.51495, 0
632, 2.45782, 0
633, 2.33505, 0
634, 2.27701, 0
635, 2.16664, 0
636, 2.10246, 0
637, 2.05711, 0
638, 2.00652, 0
639, 1.87234, 0
640, 1.83897, 0
641, 1.79951, 0
642, 1.73071, 0
643, 1.70361, 0
644, 1.63032, 0
645, 1.50339, 0
646, 1.45973, 0
647, 1.43707, 0
648, 1.40819, 0
649, 1.35233, 0
650, 1.27636, 0
466, 0, 0
467, 0, 0
468, 0, 0
469, 0, 0
470, 0, 0
471, 0, 0
472, 0, 0
473, 0, 0
474, 0, 0
475, 0, 0
476, 0, 0
477, 0, 0
478, 0, 0
479, 0, 0
480, 0, 0
481, 0, 0
482, 0, 0
483, 0, 0
484, 0, 0
485, 3.78815, 3.78815
486, 3.92743, 3.92743
487, 4.32175, 4.32175
488, 5.19745, 5.19745
489, 6.33799, 6.33799
490, 7.69795, 7.69795
491, 9.39158, 9.39158
492, 11.3153, 11.3153
493, 13.414, 13.414
494, 15.9199, 15.9199
495, 19.0153, 19.0153
496, 22.552, 22.552
497, 26.3913, 26.3913
498, 30.4321, 30.4321
499, 34.7937, 34.7937
500, 39.8668, 39.8668
501, 45.068, 45.068
502, 50.0903, 50.0903
503, 55.0875, 55.0875
504, 60.1466, 60.1466
505, 65.4695, 65.4695
506, 70.7358, 70.7358
507, 75.3358, 75.3358
508, 79.7285, 79.7285
509, 83.7295, 83.7295
510, 87.4406, 87.4406
511, 90.9344, 90.9344
512, 93.5806, 93.5806
513, 95.8436, 95.8436
514, 97.5192, 97.5192
515, 98.9348, 98.9348
516, 99.7616, 99.7616
517, 100, 100
518, 99.5764, 99.5764
519, 99.1003, 99.1003
520, 98.4013, 98.4013
521, 97.182, 97.182
522, 95.3999, 95.3999
523, 93.5891, 93.5891
524, 91.5931, 91.5931
525, 89.2959, 89.2959
526, 86.9706, 86.9706
527, 84.4696, 84.4696
528, 82.0278, 82.0278
529, 79.4143, 79.4143
530, 76.797, 76.797
531, 74.0827, 74.0827
532, 71.3354, 71.3354
533, 68.9286, 68.9286
534, 66.6009, 66.6009
535, 64.0978, 64.0978
536, 61.8333, 61.8333
537, 59.6108, 59.6108
538, 57.3749, 57.3749
539, 55.4372, 55.4372
540, 53.1756, 53.1756
541, 51.4854, 51.4854
542, 49.7223, 49.7223
543, 48.2746, 48.2746
544, 46.7495, 46.7495
545, 45.4872, 45.4872
546, 44.2036, 44.2036
547, 42.8422, 42.8422
548, 41.7063, 41.7063
549, 40.5601, 40.5601
550, 39.435, 39.435
551, 38.5836, 38.5836
552, 37.4452, 37.4452
553, 36.4262, 36.4262
554, 35.4668, 35.4668
555, 34.5588, 34.5588
556, 33.8193, 33.8193
557, 32.821, 32.821
558, 31.7862, 31.7862
559, 31.0641, 31.0641
560, 30.152, 30.152
561, 29.339, 29.339
562, 28.5611, 28.5611
563, 27.6214, 27.6214
564, 26.7477, 26.7477
565, 25.7453, 25.7453
566, 25.1094, 25.1094
567, 24.2464, 24.2464
568, 23.5031, 23.5031
569, 22.6925, 22.6925
570, 21.684, 21.684
571, 20.8988, 20.8988
572, 20.1159, 20.1159
573, 19.4753, 19.4753
574, 18.6576, 18.6576
575, 18.0609, 18.0609
576, 17.3245, 17.3245
577, 16.7026, 16.7026
578, 15.988, 15.988
579, 15.39, 15.39
580, 14.9718, 14.9718
581, 14.4591, 14.4591
582, 13.8862, 13.8862
583, 13.407, 13.407
584, 12.8741, 12.8741
585, 12.3457, 12.3457
586, 11.8878, 11.8878
587, 11.4055, 11.4055
588, 10.9363, 10.9363
589, 10.5932, 10.5932
590, 10.2797, 10.2797
591, 9.84762, 9.84762
592, 9.43809, 9.43809
593, 9.11013, 9.11013
594, 8.7797, 8.7797
595, 8.43765, 8.43765
596, 8.28441, 8.28441
597, 7.92032, 7.92032
598, 7.68435, 7.68435
599, 7.30527, 7.30527
600, 7.08483, 7.08483
601, 6.96351, 6.96351
602, 6.7048, 6.7048
603, 6.4671, 6.4671
604, 6.28263, 6.28263
605, 6.04991, 6.04991
606, 5.84743, 5.84743
607, 5.61204, 5.61204
608, 5.51799, 5.51799
609, 5.33204, 5.33204
610, 5.12639, 5.12639
611, 4.93952, 4.93952
612, 4.82187, 4.82187
613, 4.64065, 4.64065
614, 4.45506, 4.45506
615, 4.29045, 4.29045
616, 4.11331, 4.11331
617, 4.0324, 4.0324
618, 3.87276, 3.87276
619, 3.72804, 3.72804
620, 3.59754, 3.59754
621, 3.44725, 3.44725
622, 3.2959, 3.2959
623, 3.22887, 3.22887
624, 3.08617, 3.08617
625, 2.98273, 2.98273
626, 2.92028, 2.92028
627, 2.78619, 2.78619
628, 2.7751, 2.7751
629, 2.65654, 2.65654
630, 2.59467, 2.59467
631, 2.51495, 2.51495
632, 2.45782, 2.45782
633, 2.33505, 2.33505
634, 2.27701, 2.27701
635, 2.16664, 2.16664
636, 2.10246, 2.10246
637, 2.05711, 2.05711
638, 2.00652, 2.00652
639, 1.87234, 1.87234
640, 1.83897, 1.83897
641, 1.79951, 1.79951
642, 1.73071, 1.73071
643, 1.70361, 1.70361
644, 1.63032, 1.63032
645, 1.50339, 1.50339
646, 1.45973, 1.45973
647, 1.43707, 1.43707
648, 1.40819, 1.40819
649, 1.35233, 1.35233
650, 1.27636, 1.27636
651, 0, 0
652, 0, 0
653, 0, 0
654, 0, 0
655, 0, 0
656, 0, 0
657, 0, 0
658, 0, 0
659, 0, 0
660, 0, 0
661, 0, 0
662, 0, 0
663, 0, 0
664, 0, 0
665, 0, 0
666, 0, 0
667, 0, 0
668, 0, 0
669, 0, 0
670, 0, 0
671, 0, 0
672, 0, 0
673, 0, 0
674, 0, 0
675, 0, 0
676, 0, 0
677, 0, 0
678, 0, 0
679, 0, 0
680, 0, 0
681, 0, 0
682, 0, 0
683, 0, 0
684, 0, 0
685, 0, 0
686, 0, 0
687, 0, 0
688, 0, 0
689, 0, 0
690, 0, 0
691, 0, 0
692, 0, 0
693, 0, 0
694, 0, 0
695, 0, 0
696, 0, 0
697, 0, 0
698, 0, 0
699, 0, 0
700, 0, 0
701, 0, 0
702, 0, 0
703, 0, 0
704, 0, 0
705, 0, 0
706, 0, 0
707, 0, 0
708, 0, 0
709, 0, 0
710, 0, 0
711, 0, 0
712, 0, 0
713, 0, 0
714, 0, 0
715, 0, 0
716, 0, 0
717, 0, 0
718, 0, 0
719, 0, 0
720, 0, 0
721, 0, 0
722, 0, 0
723, 0, 0
724, 0, 0
725, 0, 0
726, 0, 0
727, 0, 0
728, 0, 0
729, 0, 0
730, 0, 0
731, 0, 0
732, 0, 0
733, 0, 0
734, 0, 0
735, 0, 0
736, 0, 0
737, 0, 0
738, 0, 0
739, 0, 0
740, 0, 0
741, 0, 0
742, 0, 0
743, 0, 0
744, 0, 0
745, 0, 0
746, 0, 0
747, 0, 0
748, 0, 0
749, 0, 0
750, 0, 0
751, 0, 0
752, 0, 0
753, 0, 0
754, 0, 0
755, 0, 0
756, 0, 0
757, 0, 0
758, 0, 0
759, 0, 0
760, 0, 0
761, 0, 0
762, 0, 0
763, 0, 0
764, 0, 0
765, 0, 0
766, 0, 0
767, 0, 0
768, 0, 0
769, 0, 0
770, 0, 0
771, 0, 0
772, 0, 0
773, 0, 0
774, 0, 0
775, 0, 0
776, 0, 0
777, 0, 0
778, 0, 0
779, 0, 0
780, 0, 0
781, 0, 0
782, 0, 0
783, 0, 0
784, 0, 0
785, 0, 0
786, 0, 0
787, 0, 0
788, 0, 0
789, 0, 0
790, 0, 0
791, 0, 0
792, 0, 0
793, 0, 0
794, 0, 0
795, 0, 0
796, 0, 0
797, 0, 0
798, 0, 0
799, 0, 0
800, 0, 0
801, 0, 0
802, 0, 0
803, 0, 0
804, 0, 0
805, 0, 0
806, 0, 0
807, 0, 0
808, 0, 0
809, 0, 0
810, 0, 0
811, 0, 0
812, 0, 0
813, 0, 0
814, 0, 0
815, 0, 0
816, 0, 0
817, 0, 0
818, 0, 0
819, 0, 0
820, 0, 0
821, 0, 0
822, 0, 0
823, 0, 0
824, 0, 0
825, 0, 0
826, 0, 0
827, 0, 0
828, 0, 0
829, 0, 0
830, 0, 0
831, 0, 0
832, 0, 0
833, 0, 0
834, 0, 0
835, 0, 0
836, 0, 0
837, 0, 0
838, 0, 0
839, 0, 0
840, 0, 0
841, 0, 0
842, 0, 0
843, 0, 0
844, 0, 0
845, 0, 0
846, 0, 0
847, 0, 0
848, 0, 0
849, 0, 0
850, 0, 0
851, 0, 0
852, 0, 0
853, 0, 0
854, 0, 0
855, 0, 0
856, 0, 0
857, 0, 0
858, 0, 0
859, 0, 0
860, 0, 0
861, 0, 0
862, 0, 0
863, 0, 0
864, 0, 0
865, 0, 0
866, 0, 0
867, 0, 0
868, 0, 0
869, 0, 0
870, 0, 0
871, 0, 0
872, 0, 0
873, 0, 0
874, 0, 0
875, 0, 0
876, 0, 0
877, 0, 0
878, 0, 0
879, 0, 0
880, 0, 0
881, 0, 0
882, 0, 0
883, 0, 0
884, 0, 0
885, 0, 0
886, 0, 0
887, 0, 0
888, 0, 0
889, 0, 0
890, 0, 0
891, 0, 0
892, 0, 0
893, 0, 0
894, 0, 0
895, 0, 0
896, 0, 0
897, 0, 0
898, 0, 0
899, 0, 0
900, 0, 0
901, 0, 0
902, 0, 0
903, 0, 0
904, 0, 0
905, 0, 0
906, 0, 0
907, 0, 0
908, 0, 0
909, 0, 0
910, 0, 0
911, 0, 0
912, 0, 0
913, 0, 0
914, 0, 0
915, 0, 0
916, 0, 0
917, 0, 0
918, 0, 0
919, 0, 0
920, 0, 0
921, 0, 0
922, 0, 0
923, 0, 0
924, 0, 0
925, 0, 0
926, 0, 0
927, 0, 0
928, 0, 0
929, 0, 0
930, 0, 0
931, 0, 0
932, 0, 0
933, 0, 0
934, 0, 0
935, 0, 0
936, 0, 0
937, 0, 0
938, 0, 0
939, 0, 0
940, 0, 0
941, 0, 0
942, 0, 0
943, 0, 0
944, 0, 0
945, 0, 0
946, 0, 0
947, 0, 0
948, 0, 0
949, 0, 0
950, 0, 0
951, 0, 0
952, 0, 0
953, 0, 0
954, 0, 0
955, 0, 0
956, 0, 0
957, 0, 0
958, 0, 0
959, 0, 0
960, 0, 0
961, 0, 0
962, 0, 0
963, 0, 0
964, 0, 0
965, 0, 0
966, 0, 0
967, 0, 0
968, 0, 0
969, 0, 0
970, 0, 0
971, 0, 0
972, 0, 0
973, 0, 0
974, 0, 0
975, 0, 0
976, 0, 0
977, 0, 0
978, 0, 0
979, 0, 0
980, 0, 0
981, 0, 0
982, 0, 0
983, 0, 0
984, 0, 0
985, 0, 0
986, 0, 0
987, 0, 0
988, 0, 0
989, 0, 0
990, 0, 0
991, 0, 0
992, 0, 0
993, 0, 0
994, 0, 0
995, 0, 0
996, 0, 0
997, 0, 0
998, 0, 0
999, 0, 0


