# "wavelength [nm]", "intensity/spectrum"
570, 5.88479
571, 6.14728
572, 6.81571
573, 7.56193
574, 8.45599
575, 9.53177
576, 10.6423
577, 11.8408
578, 13.3381
579, 14.8321
580, 16.6524
581, 18.7555
582, 20.9344
583, 23.2129
584, 25.8594
585, 28.5592
586, 31.6116
587, 34.8241
588, 38.2765
589, 41.9629
590, 45.7762
591, 49.4519
592, 53.3231
593, 57.3893
594, 61.5162
595, 65.8531
596, 70.0846
597, 74.5598
598, 78.3329
599, 82.0775
600, 85.6404
601, 88.4249
602, 90.9135
603, 93.3183
604, 95.3586
605, 97.1252
606, 98.9693
607, 100
608, 99.4515
609, 98.8418
610, 97.9023
611, 96.5733
612, 94.736
613, 92.6391
614, 90.3989
615, 87.6485
616, 84.7896
617, 81.5046
618, 77.8443
619, 74.7702
620, 71.4816
621, 68.2834
622, 65.2892
623, 62.4252
624, 59.2946
625, 56.5775
626, 53.8735
627, 51.5517
628, 49.0977
629, 46.644
630, 44.3793
631, 42.6211
632, 40.5413
633, 38.6202
634, 37.1115
635, 35.7134
636, 34.2169
637, 33.3016
638, 32.1358
639, 31.3284
640, 30.6808
641, 29.8794
642, 29.0089
643, 28.2999
644, 27.8369
645, 27.2784
646, 26.7453
647, 26.3698
648, 25.9976
649, 25.7259
650, 25.5632
651, 25.253
652, 25.011
653, 24.9952
654, 24.3367
655, 24.1446
656, 23.5234
657, 22.9212
658, 22.5105
659, 21.7525
660, 21.3018
661, 20.9288
662, 20.6079
663, 20.4103
664, 20.47
665, 19.769
666, 19.4768
667, 18.9956
668, 18.6129
669, 18.2875
670, 17.931
671, 17.3214
672, 16.706
673, 16.3359
674, 15.7785
675, 15.3598
676, 14.7965
677, 14.2123
678, 13.6589
679, 13.2049
680, 12.7625
681, 12.5312
682, 11.9124
683, 11.5249
684, 10.9637
685, 10.6342
686, 10.3576
687, 9.7854
688, 9.45138
689, 9.15428
690, 8.68743
691, 8.20733
692, 7.91365
693, 7.57294
694, 7.39656
695, 7.07301
696, 6.71943
697, 6.64171
698, 6.32747
699, 5.97715
700, 5.76042



