# "wavelength [nm]", "intensity/spectrum"
490, 4.42662
491, 4.42415
492, 4.92952
493, 5.73521
494, 6.82501
495, 8.35415
496, 10.245
497, 12.6583
498, 16.0158
499, 19.6932
500, 24.4336
501, 29.8896
502, 36.0288
503, 42.9154
504, 50.4146
505, 58.5461
506, 66.483
507, 74.3844
508, 81.2677
509, 87.371
510, 92.6552
511, 96.4974
512, 98.4608
513, 99.7901
514, 100
515, 98.7473
516, 96.8177
517, 94.2124
518, 91.5951
519, 88.9816
520, 85.8064
521, 82.5068
522, 78.7923
523, 75.2628
524, 72.669
525, 70.3023
526, 68.6771
527, 66.7307
528, 64.7264
529, 63.1975
530, 61.7257
531, 60.4688
532, 59.5475
533, 58.9608
534, 58.4141
535, 57.6029
536, 56.8626
537, 56.2244
538, 55.838
539, 54.5967
540, 53.7125
541, 52.9568
542, 52.0493
543, 51.4196
544, 50.4088
545, 48.8438
546, 47.3057
547, 45.995
548, 44.6957
549, 43.4815
550, 42.4557
551, 41.4737
552, 40.3173
553, 39.0241
554, 37.6046
555, 36.5713
556, 35.4805
557, 34.6555
558, 33.5197
559, 32.6221
560, 31.3839
561, 30.6041
562, 29.5674
563, 28.6906
564, 27.9503
565, 27.1615
566, 26.4168
567, 25.5234
568, 25.1079
569, 24.3568
570, 24.0148
571, 23.3532
572, 22.9368
573, 22.4932
574, 22.1624
575, 21.5832
576, 21.1944
577, 20.6302
578, 20.0386
579, 19.8131
580, 19.6137
581, 19.4715
582, 18.8731
583, 18.5221
584, 17.9832
585, 17.678
586, 17.1049
587, 16.8625
588, 16.3528
589, 16.0953
590, 15.8818
591, 15.5322
592, 15.1725
593, 14.7304
594, 14.6276
595, 14.3305
596, 13.9038
597, 13.6735
598, 13.7214
599, 13.4445
600, 13.111
601, 12.8359
602, 12.603
603, 12.3853
604, 12.0914
605, 11.8616
606, 11.815
607, 11.4988
608, 11.4708
609, 11.1132
610, 10.9295
611, 10.6558
612, 10.4977
613, 10.3838
614, 10.149
615, 10.0108
616, 9.84887
617, 9.68998
618, 9.1741
619, 9.14573
620, 9.02083
621, 8.86891
622, 8.61037
623, 8.42785
624, 8.08702
625, 8.00422
626, 7.88889
627, 7.70151
628, 7.40962
629, 7.30734
630, 7.14255
631, 7.15254
632, 6.76259
633, 6.65199
634, 6.49645
635, 6.32424
636, 6.10034
637, 6.08833
638, 5.99
639, 5.73594
640, 5.86675
641, 5.73043
642, 5.62629
643, 5.39189
644, 5.40694
645, 5.33537
646, 5.20948
647, 5.15122
648, 4.95908
649, 4.91076
650, 4.87627


