# "wavelength [nm]", "intensity/spectrum"
400, 15.7211
401, 15.2799
402, 15.1801
403, 15.08
404, 14.9657
405, 14.8804
406, 14.8094
407, 14.6394
408, 14.5131
409, 14.3883
410, 14.1508
411, 13.9287
412, 13.5763
413, 13.2524
414, 12.8947
415, 12.6525
416, 12.2873
417, 11.9687
418, 11.8714
419, 11.4223
420, 11.1737
421, 11.0919
422, 10.8206
423, 10.6378
424, 10.3241
425, 10.2106
426, 10.012
427, 9.85496
428, 9.49512
429, 9.27262
430, 9.07564
431, 8.87121
432, 8.55652
433, 8.47284
434, 8.19401
435, 8.09605
436, 7.92173
437, 7.71983
438, 7.55387
439, 7.35896
440, 7.26116
441, 6.99827
442, 6.82117
443, 6.67048
444, 6.43377
445, 6.25813
446, 6.13477
447, 5.92574
448, 5.77557
449, 5.45455
450, 5.36713
451, 5.19731
452, 4.96529
453, 4.85272
454, 4.66237
455, 4.4309
456, 4.25117
457, 4.09564
458, 3.95247
459, 3.76044
460, 3.63373
461, 3.47657
462, 3.44133
463, 3.32559
464, 3.18182
465, 3.11152
466, 3.08247
467, 3.023
468, 3.0059
469, 3.03398
470, 3.06594
471, 2.9751
472, 3.13319
473, 3.12309
474, 3.18793
475, 3.30213
476, 3.35619
477, 3.453
478, 3.56379
479, 3.61966
480, 3.70529
481, 3.90949
482, 4.12102
483, 4.24242
484, 4.36468
485, 4.59054
486, 4.81792
487, 5.15836
488, 5.33065
489, 5.69177
490, 6.02214
491, 6.24549
492, 6.57843
493, 6.90081
494, 7.24228
495, 7.50493
496, 7.96665
497, 8.23806
498, 8.67302
499, 9.06479
500, 9.3551
501, 9.72194
502, 9.91837
503, 10.3778
504, 10.8507
505, 11.1492
506, 11.634
507, 12.0238
508, 12.6585
509, 13.1576
510, 13.5538
511, 14.1442
512, 14.6829
513, 15.3169
514, 16.062
515, 16.7032
516, 17.5227
517, 18.1898
518, 19.0011
519, 19.9702
520, 20.7449
521, 21.4158
522, 22.3456
523, 23.3858
524, 24.0846
525, 25.0475
526, 26.0428
527, 26.584
528, 27.6271
529, 28.5066
530, 29.6282
531, 30.84
532, 32.2758
533, 33.4128
534, 35.0554
535, 36.7243
536, 38.3989
537, 39.6542
538, 41.0852
539, 42.0923
540, 43.3094
541, 44.0296
542, 45.0695
543, 45.8879
544, 46.9879
545, 48.3527
546, 49.6414
547, 51.2028
548, 52.4932
549, 54.0374
550, 55.4884
551, 57.518
552, 59.3195
553, 61.2344
554, 63.0522
555, 65.0735
556, 67.1903
557, 68.7592
558, 71.2176
559, 73.4218
560, 76.0662
561, 78.5975
562, 80.502
563, 82.423
564, 84.8242
565, 86.7632
566, 88.2714
567, 89.9224
568, 91.8183
569, 93.2971
570, 95.0205
571, 96.2445
572, 97.2247
573, 98.065
574, 98.7574
575, 99.8013
576, 100
577, 99.8835
578, 99.8639
579, 99.5345
580, 99.1387
581, 98.085
582, 97.0092
583, 95.1979
584, 93.3748
585, 91.4532
586, 89.6297
587, 87.4605
588, 84.4895
589, 81.8333
590, 78.974
591, 75.3484
592, 72.0952
593, 68.3237
594, 65.4995
595, 61.8877
596, 58.2021
597, 54.5016
598, 50.6945
599, 46.9954
600, 43.6975
601, 39.82
602, 36.6313
603, 33.1702
604, 30.5864
605, 27.7468
606, 25.0232
607, 22.591
608, 20.3177
609, 18.492
610, 16.8392
611, 15.3011
612, 13.8224
613, 12.5852
614, 11.359
615, 10.3938
616, 9.50993
617, 8.511
618, 7.71745
619, 6.91217
620, 6.25746
621, 5.60113
622, 5.05663
623, 4.77996
624, 4.7325
625, 4.82147



