# "wavelength [nm]", "intensity/spectrum"
520, 0.735237
521, 0.718071
522, 0.706551
523, 0.686694
524, 0.716785
525, 0.748945
526, 0.856206
527, 0.941058
528, 1.04935
529, 1.15879
530, 1.3737
531, 1.52298
532, 1.72854
533, 1.9252
534, 2.14074
535, 2.43139
536, 2.70276
537, 3.00702
538, 3.48853
539, 4.02047
540, 4.49301
541, 5.03446
542, 5.70241
543, 6.3665
544, 7.04595
545, 7.84675
546, 8.62572
547, 9.45549
548, 10.3661
549, 11.271
550, 12.2539
551, 13.2464
552, 14.3269
553, 15.2747
554, 16.3107
555, 17.4714
556, 18.6074
557, 19.9214
558, 21.0865
559, 22.3847
560, 23.2712
561, 24.4803
562, 25.7334
563, 26.7608
564, 27.8224
565, 28.7227
566, 29.9241
567, 30.8959
568, 31.9385
569, 33.1902
570, 34.1638
571, 35.0788
572, 36.1948
573, 37.0176
574, 38.2445
575, 38.7951
576, 39.2792
577, 40.1572
578, 40.4641
579, 41.3118
580, 42.0769
581, 42.614
582, 43.2263
583, 43.7502
584, 44.5367
585, 44.9685
586, 45.3657
587, 46.0656
588, 46.5402
589, 47.4136
590, 47.9623
591, 48.6595
592, 49.416
593, 49.9666
594, 50.4979
595, 51.6827
596, 52.7436
597, 53.6078
598, 54.365
599, 55.5672
600, 56.1363
601, 57.5833
602, 58.6168
603, 60.0428
604, 61.3011
605, 62.2803
606, 64.1582
607, 65.6449
608, 66.9333
609, 68.1721
610, 69.6028
611, 70.7915
612, 72.2787
613, 74.1155
614, 76.1697
615, 77.6909
616, 79.2645
617, 79.9698
618, 81.5483
619, 83.1919
620, 85.2342
621, 86.5973
622, 87.3976
623, 89.1974
624, 90.0287
625, 90.8288
626, 92.3287
627, 93.9275
628, 94.6386
629, 95.8874
630, 96.4274
631, 97.7883
632, 97.7525
633, 97.6476
634, 98.5008
635, 99.2851
636, 98.9545
637, 99.8391
638, 99.6312
639, 99.5673
640, 99.7157
641, 100
642, 99.022
643, 98.2728
644, 98.3113
645, 97.5528
646, 96.8865
647, 95.7852
648, 94.7166
649, 92.9313
650, 91.6691
651, 90.7052
652, 89.8837
653, 89.7426
654, 87.4688
655, 87.5654
656, 85.1233
657, 83.5645
658, 83.1895
659, 80.8042
660, 80.2516
661, 78.5089
662, 78.0982
663, 77.32
664, 77.3008
665, 74.8416
666, 73.9369
667, 72.335
668, 71.5658
669, 70.0632
670, 69.6414
671, 68.2388
672, 66.3585
673, 64.9418
674, 63.4704
675, 62.7597
676, 61.6337
677, 59.7221
678, 58.1642
679, 57.6203
680, 56.605
681, 55.0983
682, 54.0326
683, 53.2764
684, 52.4054
685, 51.2376
686, 50.2986
687, 49.2492
688, 47.5781
689, 47.0733
690, 45.559
691, 44.1996
692, 43.5032
693, 42.8014
694, 41.6818
695, 40.3226
696, 39.6922
697, 39.8353
698, 38.2691
699, 36.7793
700, 36.372
701, 35.751
702, 34.412
703, 33.6408
704, 31.719
705, 31.8906
706, 31.4894
707, 30.2978
708, 29.5869
709, 28.4812
710, 27.8104
711, 26.8732
712, 25.9382
713, 25.4115
714, 24.9859
715, 24.4216
716, 23.9636
717, 23.2681
718, 22.4376
719, 22.3232
720, 21.5019
721, 21.7208
722, 21.1176
723, 20.6227
724, 20.1108
725, 20.2244
726, 19.5592
727, 18.9625
728, 18.8806
729, 18.5468
730, 18.1102
731, 17.2637
732, 17.0658
733, 16.3631
734, 16.2655
735, 15.9628
736, 16.0921
737, 15.3066
738, 14.9493
739, 14.4687
740, 14.2916
741, 14.1928
742, 14.0551
743, 13.6474
744, 12.9155
745, 13.0469
746, 12.5436
747, 12.1402
748, 12.1923
749, 11.9005
750, 11.4972


