# "wavelength [nm]", "intensity/spectrum"
450, 3.86147
451, 3.89784
452, 3.88423
453, 3.91315
454, 3.92535
455, 3.99817
456, 4.06029
457, 4.22999
458, 4.40942
459, 4.58675
460, 4.80684
461, 4.90337
462, 5.11082
463, 5.38116
464, 5.7706
465, 5.94619
466, 6.19316
467, 6.57756
468, 6.89434
469, 7.22911
470, 7.706
471, 8.12821
472, 8.59941
473, 9.00069
474, 9.50667
475, 9.91681
476, 10.5844
477, 11.1799
478, 11.6934
479, 12.401
480, 12.9456
481, 13.8079
482, 14.4702
483, 15.1672
484, 16.0987
485, 17.0828
486, 18.3199
487, 19.28
488, 20.5708
489, 21.4311
490, 22.473
491, 23.4342
492, 24.5574
493, 25.6618
494, 26.7597
495, 27.9893
496, 29.0616
497, 30.5585
498, 31.8501
499, 33.1616
500, 34.6325
501, 35.9022
502, 37.4632
503, 38.9107
504, 40.0266
505, 41.3256
506, 42.5864
507, 43.9494
508, 45.2469
509, 46.9421
510, 48.3317
511, 49.2549
512, 50.8598
513, 52.3294
514, 54.0324
515, 55.1902
516, 56.6545
517, 58.6077
518, 60.0537
519, 62.3967
520, 64.0635
521, 65.9116
522, 67.5656
523, 69.7069
524, 71.8969
525, 74.2315
526, 76.5515
527, 78.5624
528, 81.0235
529, 83.2338
530, 85.2718
531, 87.4726
532, 89.5881
533, 91.7463
534, 93.5449
535, 95.1704
536, 96.8014
537, 98.1066
538, 98.6706
539, 98.9769
540, 100
541, 99.4435
542, 98.4015
543, 97.2344
544, 95.8912
545, 93.8283
546, 91.8615
547, 89.0753
548, 85.4589
549, 81.9483
550, 77.9357
551, 73.3094
552, 69.0731
553, 64.076
554, 59.3737
555, 54.5536
556, 49.6605
557, 44.9784
558, 40.0232
559, 35.3525
560, 30.8226
561, 27.0153
562, 23.6754
563, 20.6082
564, 17.8968
565, 15.5308
566, 13.4217
567, 11.6766
568, 10.2124
569, 9.03004
570, 8.01928
571, 7.14445
572, 6.48054
573, 5.90694
574, 5.69937
575, 5.5557


