# "wavelength [nm]", "intensity/spectrum"
299.262, 0.295556
303.692, 0.285766
306.646, 0.305512
308.861, 0.330174
310.338, 0.354825
312.553, 0.377024
314.03, 0.401675
315.506, 0.426327
316.983, 0.450978
318.46, 0.475629
319.937, 0.497818
321.414, 0.522469
322.89, 0.54712
324.367, 0.571772
325.844, 0.59396
328.059, 0.618622
329.536, 0.643273
331.013, 0.667924
332.489, 0.692576
333.966, 0.714764
335.443, 0.739415
336.92, 0.764066
338.397, 0.788718
341.35, 0.810927
347.257, 0.813473
350.211, 0.791347
352.426, 0.769211
353.903, 0.744601
354.641, 0.719981
356.118, 0.695371
356.857, 0.670751
357.595, 0.623963
357.595, 0.623963
359.81, 0.616605
359.81, 0.616605
361.287, 0.591996
361.287, 0.591996
362.764, 0.567386
362.764, 0.567386
363.502, 0.542766
363.502, 0.542766
364.979, 0.518156
364.979, 0.518156
366.456, 0.493546
366.456, 0.493546
367.932, 0.471399
367.932, 0.471399
368.671, 0.446779
368.671, 0.446779
370.148, 0.42217
370.148, 0.42217
371.624, 0.39756
371.624, 0.39756
373.101, 0.37295
374.578, 0.34834
376.055, 0.326194
377.532, 0.301584
379.008, 0.276974
380.485, 0.252364
381.962, 0.230218
383.439, 0.205608
385.654, 0.181009
387.131, 0.156399
388.608, 0.134252
390.823, 0.109653
394.515, 0.0776849
398.945, 0.0580429
401.899, 0.0433061
407.806, 0.031074
415.19, 0.0213257
421.835, 0.0140301
429.219, 0.00920787


