# "wavelength [nm]", "intensity/spectrum"
300, 12.5995
301, 11.1737
302, 9.76459
303, 8.95225
304, 8.25597
305, 7.59284
306, 7.17838
307, 6.81366
308, 6.49867
309, 6.28316
310, 6.1008
311, 5.96817
312, 5.8687
313, 5.76923
314, 5.70292
315, 5.65318
316, 5.60345
317, 5.57029
318, 5.52056
319, 5.47082
320, 5.40451
321, 5.38793
322, 5.37135
323, 5.28846
324, 5.23873
325, 5.22215
326, 5.20557
327, 5.17241
328, 5.15584
329, 5.1061
330, 5.03979
331, 5.02321
332, 4.99005
333, 4.94032
334, 4.85743
335, 4.75796
336, 4.74138
337, 4.65849
338, 4.52586
339, 4.39324
340, 4.24403
341, 4.12798
342, 4.01194
343, 3.82958
344, 3.69695
345, 3.59748
346, 3.48143
347, 3.33223
348, 3.24934
349, 3.1996
350, 3.10013
351, 3.03382
352, 2.96751
353, 2.90119
354, 2.78515
355, 2.6691
356, 2.51989
357, 2.40385
358, 2.30438
359, 2.17175
360, 2.08886
361, 2.00597
362, 1.92308
363, 1.85676
364, 1.77387
365, 1.6744
366, 1.60809
367, 1.57493
368, 1.5252
369, 1.47546
370, 1.44231
371, 1.376
372, 1.34284
373, 1.32626
374, 1.2931
375, 1.27652
376, 1.22679
377, 1.19363
378, 1.11074
379, 1.04443
380, 0.978117
381, 0.928382
382, 0.878647
383, 0.845491
384, 0.828912
385, 0.779178
386, 0.712865
387, 0.696286
388, 0.66313
389, 0.629973
390, 0.613395
391, 0.613395
392, 0.580239
393, 0.547082
394, 0.513926
395, 0.513926
396, 0.530504
397, 0.513926
398, 0.480769
399, 0.464191
400, 0.464191
401, 0.480769
402, 0.480769
403, 0.447613
404, 0.447613
405, 0.480769
406, 0.464191
407, 0.464191
408, 0.447613
409, 0.447613
410, 0.447613
411, 0.447613
412, 0.447613
413, 0.447613
414, 0.431034
415, 0.447613
416, 0.480769
417, 0.480769
418, 0.497347
419, 0.547082
420, 0.563661
421, 0.580239
422, 0.596817
423, 0.629973
424, 0.646552
425, 0.66313
426, 0.696286
427, 0.729443
428, 0.762599
429, 0.795756
430, 0.828912
431, 0.895226
432, 0.911804
433, 0.978117
434, 1.04443
435, 1.09416
436, 1.1439
437, 1.22679
438, 1.27652
439, 1.34284
440, 1.42573
441, 1.50862
442, 1.57493
443, 1.70756
444, 1.80703
445, 1.9065
446, 2.0557
447, 2.18833
448, 2.32096
449, 2.50332
450, 2.65252
451, 2.83488
452, 3.0504
453, 3.24934
454, 3.48143
455, 3.76326
456, 3.99536
457, 4.27719
458, 4.62533
459, 4.90716
460, 5.18899
461, 5.55371
462, 5.85212
463, 6.15053
464, 6.49867
465, 6.7805
466, 7.06233
467, 7.44363
468, 7.70889
469, 8.00729
470, 8.38859
471, 8.70358
472, 9.05172
473, 9.53249
474, 9.98011
475, 10.4774
476, 11.1737
477, 11.7706
478, 12.4503
479, 13.4118
480, 14.2407
481, 15.1194
482, 16.3462
483, 17.3574
484, 18.4516
485, 19.9271
486, 21.1538
487, 22.4635
488, 24.1877
489, 25.6134
490, 27.0391
491, 28.8627
492, 30.2553
493, 31.565
494, 33.0736
495, 34.1015
496, 34.8972
497, 35.6764
498, 36.0743
499, 36.3064
500, 36.4224
501, 36.3561
502, 36.2401
503, 36.0909
504, 36.008
505, 36.0245
506, 36.2401
507, 36.6048
508, 37.1684
509, 38.2294
510, 39.3568
511, 40.6499
512, 42.6227
513, 44.4131
514, 46.2699
515, 48.9887
516, 51.3594
517, 53.7633
518, 57.2779
519, 60.4775
520, 63.8097
521, 68.7832
522, 72.9775
523, 77.2712
524, 83.2062
525, 87.6658
526, 91.628
527, 96.0544
528, 98.4251
529, 99.7182
530, 100
531, 98.508
532, 96.2533
533, 91.8601
534, 87.6161
535, 82.941
536, 75.945
537, 70.557
538, 65.053
539, 57.5099
540, 52.2049
541, 47.1651
542, 40.683
543, 36.3229
544, 32.2447
545, 27.1386
546, 23.7566
547, 20.6731
548, 16.9596
549, 14.5889
550, 12.5166
551, 10.0464
552, 8.57095
553, 7.29443
554, 5.85212
555, 4.99005
556, 4.24403
557, 3.4317
558, 2.95093
559, 2.51989
560, 2.07228
561, 1.79045
562, 1.54178
563, 1.2931
564, 1.1439
565, 1.01127
566, 0.878647
567, 0.795756
568, 0.712865
569, 0.613395
570, 0.563661
571, 0.513926
572, 0.447613
573, 0.414456
574, 0.364721
575, 0.314987
576, 0.28183
577, 0.265252
578, 0.215517
579, 0.198939
580, 0.165782
581, 0.165782
582, 0.149204
583, 0.149204
584, 0.149204
585, 0.149204
586, 0.149204
587, 0.165782
588, 0.165782
589, 0.165782
590, 0.149204
591, 0.132626
592, 0.0994695
593, 0.0994695
594, 0.0829
595, 0.066313
596, 0.066313
597, 0.066313
598, 0.0497
599, 0.0331565
600, 0.0497
601, 0
602, 0
603, 0
604, 0
605, 0
606, 0
607, 0
608, 0
609, 0
610, 0
611, 0
612, 0
613, 0
614, 0
615, 0
616, 0
617, 0
618, 0
619, 0
620, 0
621, 0
622, 0
623, 0
624, 0
625, 0
626, 0
627, 0
628, 0
629, 0
630, 0
631, 0
632, 0
633, 0
634, 0
635, 0
636, 0
637, 0
638, 0
639, 0
640, 0
641, 0
642, 0
643, 0
644, 0
645, 0
646, 0
647, 0
648, 0
649, 0
650, 0
651, 0
652, 0
653, 0
654, 0
655, 0
656, 0
657, 0
658, 0
659, 0
660, 0
661, 0
662, 0
663, 0
664, 0
665, 0
666, 0
667, 0
668, 0
669, 0
670, 0
671, 0
672, 0
673, 0
674, 0
675, 0
676, 0
677, 0
678, 0
679, 0
680, 0
681, 0
682, 0
683, 0
684, 0
685, 0
686, 0
687, 0
688, 0
689, 0
690, 0
691, 0
692, 0
693, 0
694, 0
695, 0
696, 0
697, 0
698, 0
699, 0
700, 0
701, 0
702, 0
703, 0
704, 0
705, 0
706, 0
707, 0
708, 0
709, 0
710, 0
711, 0
712, 0
713, 0
714, 0
715, 0
716, 0
717, 0
718, 0
719, 0
720, 0
721, 0
722, 0
723, 0
724, 0
725, 0
726, 0
727, 0
728, 0
729, 0
730, 0
731, 0
732, 0
733, 0
734, 0
735, 0
736, 0
737, 0
738, 0
739, 0
740, 0
741, 0
742, 0
743, 0
744, 0
745, 0
746, 0
747, 0
748, 0
749, 0
750, 0
751, 0
752, 0
753, 0
754, 0
755, 0
756, 0
757, 0
758, 0
759, 0
760, 0
761, 0
762, 0
763, 0
764, 0
765, 0
766, 0
767, 0
768, 0
769, 0
770, 0
771, 0
772, 0
773, 0
774, 0
775, 0
776, 0
777, 0
778, 0
779, 0
780, 0
781, 0
782, 0
783, 0
784, 0
785, 0
786, 0
787, 0
788, 0
789, 0
790, 0
791, 0
792, 0
793, 0
794, 0
795, 0
796, 0
797, 0
798, 0
799, 0
800, 0
801, 0
802, 0
803, 0
804, 0
805, 0
806, 0
807, 0
808, 0
809, 0
810, 0
811, 0
812, 0
813, 0
814, 0
815, 0
816, 0
817, 0
818, 0
819, 0
820, 0
821, 0
822, 0
823, 0
824, 0
825, 0
826, 0
827, 0
828, 0
829, 0
830, 0
831, 0
832, 0
833, 0
834, 0
835, 0
836, 0
837, 0
838, 0
839, 0
840, 0
841, 0
842, 0
843, 0
844, 0
845, 0
846, 0
847, 0
848, 0
849, 0
850, 0
851, 0
852, 0
853, 0
854, 0
855, 0
856, 0
857, 0
858, 0
859, 0
860, 0
861, 0
862, 0
863, 0
864, 0
865, 0
866, 0
867, 0
868, 0
869, 0
870, 0
871, 0
872, 0
873, 0
874, 0
875, 0
876, 0
877, 0
878, 0
879, 0
880, 0
881, 0
882, 0
883, 0
884, 0
885, 0
886, 0
887, 0
888, 0
889, 0
890, 0
891, 0
892, 0
893, 0
894, 0
895, 0
896, 0
897, 0
898, 0
899, 0
900, 0
901, 0
902, 0
903, 0
904, 0
905, 0
906, 0
907, 0
908, 0
909, 0
910, 0
911, 0
912, 0
913, 0
914, 0
915, 0
916, 0
917, 0
918, 0
919, 0
920, 0
921, 0
922, 0
923, 0
924, 0
925, 0
926, 0
927, 0
928, 0
929, 0
930, 0
931, 0
932, 0
933, 0
934, 0
935, 0
936, 0
937, 0
938, 0
939, 0
940, 0
941, 0
942, 0
943, 0
944, 0
945, 0
946, 0
947, 0
948, 0
949, 0
950, 0
951, 0
952, 0
953, 0
954, 0
955, 0
956, 0
957, 0
958, 0
959, 0
960, 0
961, 0
962, 0
963, 0
964, 0
965, 0
966, 0
967, 0
968, 0
969, 0
970, 0
971, 0
972, 0
973, 0
974, 0
975, 0
976, 0
977, 0
978, 0
979, 0
980, 0
981, 0
982, 0
983, 0
984, 0
985, 0
986, 0
987, 0
988, 0
989, 0
990, 0
991, 0
992, 0
993, 0
994, 0
995, 0
996, 0
997, 0
998, 0
999, 0
, 


