# "wavelength [nm]", "intensity/spectrum"
530, 0.083
531, 0.099
532, 0.119
533, 0.143
534, 0.171
535, 0.203
536, 0.237
537, 0.283
538, 0.341
539, 0.4
540, 0.453
541, 0.493
542, 0.543
543, 0.6
544, 0.663
545, 0.724
546, 0.778
547, 0.834
548, 0.879
549, 0.918
550, 0.949
551, 0.975
552, 0.992
553, 1
554, 0.998
555, 0.992
556, 0.981
557, 0.968
558, 0.944
559, 0.921
560, 0.898
561, 0.868
562, 0.839
563, 0.811
564, 0.782
565, 0.754
566, 0.727
567, 0.703
568, 0.677
569, 0.655
570, 0.637
571, 0.616
572, 0.596
573, 0.579
574, 0.565
575, 0.55
576, 0.539
577, 0.529
578, 0.518
579, 0.51
580, 0.504
581, 0.498
582, 0.492
583, 0.487
584, 0.483
585, 0.48
586, 0.477
587, 0.474
588, 0.474
589, 0.47
590, 0.467
591, 0.463
592, 0.461
593, 0.455
594, 0.451
595, 0.444
596, 0.437
597, 0.43
598, 0.423
599, 0.414
600, 0.405
601, 0.396
602, 0.387
603, 0.376
604, 0.366
605, 0.356
606, 0.346
607, 0.335
608, 0.322
609, 0.313
610, 0.303
611, 0.294
612, 0.283
613, 0.272
614, 0.263
615, 0.252
616, 0.245
617, 0.236
618, 0.227
619, 0.219
620, 0.212
621, 0.204
622, 0.197
623, 0.191
624, 0.185
625, 0.178
626, 0.173
627, 0.167
628, 0.161
629, 0.158
630, 0.151
631, 0.148
632, 0.144
633, 0.14
634, 0.137
635, 0.133
636, 0.129
637, 0.125
638, 0.122
639, 0.119
640, 0.117
641, 0.114
642, 0.112
643, 0.108
644, 0.107
645, 0.103
646, 0.101
647, 0.098
648, 0.097
649, 0.092
650, 0.091
651, 0.088
652, 0.086
653, 0.084
654, 0.081
655, 0.078
656, 0.075
657, 0.073
658, 0.071
659, 0.069
660, 0.066
661, 0.065
662, 0.062
663, 0.061
664, 0.059
665, 0.056
666, 0.054
667, 0.053
668, 0.051
669, 0.049
670, 0.048
671, 0.045
672, 0.045
673, 0.043
674, 0.041
675, 0.04
676, 0.038
677, 0.038
678, 0.037
679, 0.035
680, 0.034
681, 0.033
682, 0.032
683, 0.031
684, 0.03
685, 0.028
686, 0.028
687, 0.027
688, 0.026
689, 0.026
690, 0.024
691, 0.024
692, 0.023
693, 0.022
694, 0.022
695, 0.021
696, 0.021
697, 0.02
698, 0.019
699, 0.019
700, 0.018


