# "wavelength [nm]", "intensity/spectrum"
300, 0.261
301, 0.238
302, 0.216
303, 0.195
304, 0.177
305, 0.16
306, 0.147
307, 0.135
308, 0.128
309, 0.118
310, 0.112
311, 0.108
312, 0.101
313, 0.097
314, 0.094
315, 0.091
316, 0.087
317, 0.084
318, 0.082
319, 0.08
320, 0.079
321, 0.077
322, 0.074
323, 0.073
324, 0.072
325, 0.071
326, 0.069
327, 0.068
328, 0.067
329, 0.065
330, 0.064
331, 0.064
332, 0.061
333, 0.061
334, 0.062
335, 0.06
336, 0.06
337, 0.061
338, 0.059
339, 0.06
340, 0.06
341, 0.06
342, 0.06
343, 0.06
344, 0.06
345, 0.061
346, 0.062
347, 0.062
348, 0.062
349, 0.061
350, 0.063
351, 0.062
352, 0.065
353, 0.071
354, 0.068
355, 0.068
356, 0.071
357, 0.074
358, 0.076
359, 0.078
360, 0.078
361, 0.082
362, 0.083
363, 0.085
364, 0.089
365, 0.092
366, 0.095
367, 0.099
368, 0.101
369, 0.106
370, 0.11
371, 0.116
372, 0.12
373, 0.125
374, 0.131
375, 0.137
376, 0.143
377, 0.151
378, 0.158
379, 0.167
380, 0.174
381, 0.182
382, 0.191
383, 0.201
384, 0.21
385, 0.219
386, 0.23
387, 0.241
388, 0.251
389, 0.262
390, 0.273
391, 0.286
392, 0.298
393, 0.311
394, 0.325
395, 0.339
396, 0.354
397, 0.369
398, 0.385
399, 0.402
400, 0.419
401, 0.436
402, 0.455
403, 0.473
404, 0.49
405, 0.509
406, 0.527
407, 0.545
408, 0.562
409, 0.58
410, 0.597
411, 0.614
412, 0.63
413, 0.647
414, 0.663
415, 0.68
416, 0.698
417, 0.716
418, 0.735
419, 0.754
420, 0.772
421, 0.793
422, 0.813
423, 0.834
424, 0.855
425, 0.876
426, 0.896
427, 0.916
428, 0.933
429, 0.949
430, 0.965
431, 0.976
432, 0.986
433, 0.994
434, 0.998
435, 1
436, 1
437, 0.997
438, 0.994
439, 0.99
440, 0.984
441, 0.979
442, 0.973
443, 0.968
444, 0.965
445, 0.962
446, 0.96
447, 0.959
448, 0.96
449, 0.96
450, 0.962
451, 0.962
452, 0.962
453, 0.96
454, 0.956
455, 0.949
456, 0.94
457, 0.926
458, 0.908
459, 0.885
460, 0.857
461, 0.825
462, 0.788
463, 0.747
464, 0.703
465, 0.656
466, 0.608
467, 0.559
468, 0.512
469, 0.466
470, 0.421
471, 0.379
472, 0.34
473, 0.304
474, 0.272
475, 0.243
476, 0.217
477, 0.193
478, 0.173
479, 0.155
480, 0.138
481, 0.124
482, 0.111
483, 0.099
484, 0.089
485, 0.079
486, 0.07
487, 0.061
488, 0.054
489, 0.048
490, 0.042
491, 0.037
492, 0.033
493, 0.028
494, 0.025
495, 0.022
496, 0.018
497, 0.016
498, 0.014
499, 0.012
500, 0.012
501, 0.01
502, 0.01
503, 0.008
504, 0.009
505, 0.007
506, 0.007
507, 0.006
508, 0.006
509, 0.006
510, 0.006
511, 0.006
512, 0.005
513, 0.006
514, 0.005
515, 0.005
516, 0.005
517, 0.005
518, 0.005
519, 0.004
520, 0.004
521, 0.004
522, 0.005
523, 0.005
524, 0.005
525, 0.005
526, 0.005
527, 0.005
528, 0.005
529, 0.005
530, 0.005
531, 0.004
532, 0.003
533, 0.003
534, 0.003
535, 0.003
536, 0.003
537, 0.003
538, 0.003
539, 0.003
540, 0.004
541, 0.004
542, 0.005
543, 0.004
544, 0.005
545, 0.005
546, 0.005
547, 0.005
548, 0.005
549, 0.005
550, 0.005
551, 0.004
552, 0.004
553, 0.003
554, 0.003
555, 0.003
556, 0.002
557, 0.003
558, 0.003
559, 0.003
560, 0.004
561, 0.003
562, 0.003
563, 0.003
564, 0.003
565, 0.003
566, 0.004
567, 0.003
568, 0.003
569, 0.003
570, 0.003
571, 0.003
572, 0.004
573, 0.003
574, 0.003
575, 0.003
576, 0.003
577, 0.004
578, 0.003
579, 0.004
580, 0.003
581, 0.003
582, 0.004
583, 0.003
584, 0.003
585, 0.004
586, 0.003
587, 0.003
588, 0.004
589, 0.004
590, 0.003
591, 0.003
592, 0.003
593, 0.003
594, 0.003
595, 0.003
596, 0.003
597, 0.003
598, 0.003
599, 0.002
600, 0.003
601, 0.002
602, 0.002
603, 0.002
604, 0.003
605, 0.002
606, 0.003
607, 0.003
608, 0.003
609, 0.002
610, 0.004
611, 0.003
612, 0.003
613, 0.003
614, 0.003
615, 0.003
616, 0.003
617, 0.003
618, 0.003
619, 0.004
620, 0.003
621, 0.003
622, 0.002
623, 0.003
624, 0.002
625, 0.002
626, 0.002
627, 0.002
628, 0.003
629, 0.003
630, 0.003
631, 0.003
632, 0.003
633, 0.002
634, 0.002
635, 0.002
636, 0.002
637, 0.001
638, 0.001
639, 0.001
640, 0.002
641, 0.001
642, 0.002
643, 0.002
644, 0.002
645, 0.002
646, 0.002
647, 0.002
648, 0.002
649, 0.002
650, 0.003
651, 0.002
652, 0.003
653, 0.002
654, 0.003
655, 0.002
656, 0.002
657, 0.002
658, 0.003
659, 0.003
660, 0.002
661, 0.002
662, 0.003
663, 0.002
664, 0.002
665, 0.002
666, 0.002
667, 0.001
668, 0.002
669, 0.002
670, 0.002
671, 0.002
672, 0.002
673, 0.003
674, 0.003
675, 0.002
676, 0.001
677, 0
678, 0
679, 0
680, 0
681, 0.001
682, 0
683, 0
684, 0.001
685, 0
686, 0.001
687, 0
688, 0.001
689, 0
690, 0.001
691, 0
692, 0
693, 0
694, 0
695, 0
696, 0.001
697, 0.001
698, 0.002
699, 0.001
700, 0.001


