# "wavelength [nm]", "intensity/spectrum"
433, 0.004
434, 0.004
435, 0.004
436, 0.006
437, 0.004
438, 0.005
439, 0.005
440, 0.007
441, 0.007
442, 0.008
443, 0.009
444, 0.011
445, 0.013
446, 0.016
447, 0.019
448, 0.023
449, 0.029
450, 0.035
451, 0.043
452, 0.054
453, 0.066
454, 0.082
455, 0.101
456, 0.124
457, 0.149
458, 0.179
459, 0.214
460, 0.259
461, 0.305
462, 0.359
463, 0.417
464, 0.475
465, 0.537
466, 0.6
467, 0.665
468, 0.73
469, 0.785
470, 0.841
471, 0.891
472, 0.93
473, 0.959
474, 0.971
475, 0.995
476, 0.997
477, 1
478, 0.993
479, 0.986
480, 0.968
481, 0.953
482, 0.937
483, 0.92
484, 0.906
485, 0.896
486, 0.883
487, 0.875
488, 0.868
489, 0.859
490, 0.852
491, 0.856
492, 0.862
493, 0.86
494, 0.866
495, 0.874
496, 0.879
497, 0.88
498, 0.887
499, 0.895
500, 0.898
501, 0.905
502, 0.904
503, 0.904
504, 0.904
505, 0.892
506, 0.891
507, 0.872
508, 0.86
509, 0.845
510, 0.828
511, 0.81
512, 0.787
513, 0.765
514, 0.743
515, 0.719
516, 0.695
517, 0.672
518, 0.653
519, 0.632
520, 0.611
521, 0.593
522, 0.574
523, 0.556
524, 0.541
525, 0.529
526, 0.513
527, 0.502
528, 0.487
529, 0.475
530, 0.465
531, 0.456
532, 0.449
533, 0.433
534, 0.429
535, 0.423
536, 0.41
537, 0.402
538, 0.395
539, 0.385
540, 0.378
541, 0.372
542, 0.362
543, 0.354
544, 0.346
545, 0.339
546, 0.331
547, 0.316
548, 0.311
549, 0.3
550, 0.294
551, 0.281
552, 0.272
553, 0.267
554, 0.258
555, 0.245
556, 0.241
557, 0.231
558, 0.224
559, 0.217
560, 0.207
561, 0.202
562, 0.19
563, 0.189
564, 0.182
565, 0.176
566, 0.168
567, 0.162
568, 0.156
569, 0.152
570, 0.148
571, 0.143
572, 0.14
573, 0.136
574, 0.132
575, 0.126
576, 0.124
577, 0.119
578, 0.118
579, 0.112
580, 0.11
581, 0.107
582, 0.103
583, 0.101
584, 0.098
585, 0.095
586, 0.095
587, 0.092
588, 0.088
589, 0.086
590, 0.083
591, 0.081
592, 0.079
593, 0.078
594, 0.075
595, 0.072
596, 0.071
597, 0.069
598, 0.066
599, 0.065
600, 0.062
601, 0.061
602, 0.059
603, 0.057
604, 0.055
605, 0.053
606, 0.052
607, 0.051
608, 0.047
609, 0.047
610, 0.047
611, 0.045
612, 0.044
613, 0.043
614, 0.041
615, 0.038
616, 0.037
617, 0.038
618, 0.037
619, 0.036
620, 0.035
621, 0.034
622, 0.033
623, 0.032
624, 0.032
625, 0.03
626, 0.029
627, 0.028
628, 0.029
629, 0.027
630, 0.026
631, 0.027
632, 0.026
633, 0.025
634, 0.025
635, 0.025
636, 0.024
637, 0.024
638, 0.023
639, 0.023
640, 0.022
641, 0.021
642, 0.022
643, 0.022
644, 0.021
645, 0.02
646, 0.02
647, 0.019
648, 0.019
649, 0.019
650, 0.018
651, 0.018
652, 0.018
653, 0.017
654, 0.017
655, 0.017
656, 0.017
657, 0.016
658, 0.017
659, 0.016
660, 0.017
661, 0.015
662, 0.015
663, 0.016
664, 0.016
665, 0.016
666, 0.014
667, 0.013
668, 0.015
669, 0.014
670, 0.014
671, 0.014
672, 0.014
673, 0.015
674, 0.014
675, 0.014
676, 0.014
677, 0.013
678, 0.013
679, 0.014
680, 0.013
681, 0.013
682, 0.015
683, 0.013
684, 0.013
685, 0.013
686, 0.013
687, 0.013
688, 0.013
689, 0.012
690, 0.013
691, 0.013
692, 0.013
693, 0.013
694, 0.012
695, 0.012
696, 0.013
697, 0.013
698, 0.013
699, 0.012
700, 0.013


