# "wavelength [nm]", "intensity/spectrum"
560, 0.553
561, 0.57
562, 0.626
563, 0.697
564, 0.792
565, 0.915
566, 1.044
567, 1.19
568, 1.342
569, 1.572
570, 1.804
571, 2.07
572, 2.387
573, 2.679
574, 3.084
575, 3.555
576, 4.07
577, 4.586
578, 5.102
579, 5.818
580, 6.521
581, 7.347
582, 8.306
583, 9.27
584, 10.383
585, 11.635
586, 13
587, 14.368
588, 15.873
589, 17.766
590, 19.62
591, 21.55
592, 23.846
593, 25.781
594, 28.146
595, 30.794
596, 33.542
597, 36.638
598, 39.064
599, 42.015
600, 45.051
601, 48.008
602, 51.15
603, 54.3
604, 57.363
605, 60.169
606, 62.892
607, 65.833
608, 68.543
609, 71.393
610, 74.234
611, 76.798
612, 79.165
613, 81.11
614, 83.181
615, 85.377
616, 87.453
617, 89.242
618, 90.513
619, 91.982
620, 93.447
621, 94.477
622, 95.501
623, 96.591
624, 97.112
625, 97.816
626, 98.209
627, 98.594
628, 98.937
629, 99.168
630, 99.617
631, 99.86
632, 99.908
633, 100
634, 99.887
635, 99.716
636, 99.893
637, 99.686
638, 99.255
639, 98.755
640, 98.209
641, 97.785
642, 97.45
643, 97.059
644, 96.361
645, 95.7
646, 95.233
647, 94.809
648, 93.825
649, 92.906
650, 92.026
651, 91.272
652, 90.347
653, 89.309
654, 88.146
655, 87.282
656, 86.457
657, 85.509
658, 84.737
659, 83.601
660, 82.475
661, 81.503
662, 80.397
663, 79.415
664, 78.278
665, 77.223
666, 76.486
667, 75.199
668, 73.857
669, 72.521
670, 71.565
671, 70.07
672, 69.109
673, 68.074
674, 66.775
675, 65.548
676, 64.189
677, 62.782
678, 61.61
679, 60.345
680, 58.908
681, 57.565
682, 56.551
683, 55.357
684, 54.133
685, 52.971
686, 52.001
687, 50.925
688, 50.024
689, 49.182
690, 48.39
691, 47.605
692, 46.737
693, 46.246
694, 45.505
695, 44.742
696, 43.991
697, 43.362
698, 43.004
699, 42.296
700, 41.686
701, 41.13
702, 40.62
703, 39.821
704, 39.224
705, 38.687
706, 38.273
707, 37.644
708, 37.114
709, 36.434
710, 35.871
711, 35.293
712, 34.683
713, 34.173
714, 33.716
715, 33.064
716, 32.576
717, 31.955
718, 31.407
719, 30.888
720, 30.327
721, 29.763
722, 29.15
723, 28.643
724, 28.084
725, 27.394
726, 26.798
727, 26.206
728, 25.655
729, 25.078
730, 24.554
731, 24.082
732, 23.64
733, 23.243
734, 22.682
735, 22.059
736, 21.575
737, 21.016
738, 20.551
739, 20.154
740, 19.752
741, 19.329
742, 18.952
743, 18.551
744, 18.091
745, 17.737
746, 17.372
747, 17.038
748, 16.605
749, 16.266
750, 15.852
751, 15.592
752, 15.176
753, 14.8
754, 14.533
755, 14.104
756, 13.871
757, 13.543
758, 13.193
759, 12.807
760, 12.56
761, 12.278
762, 12.004
763, 11.649
764, 11.407
765, 11.083
766, 10.805
767, 10.548
768, 10.305
769, 10.051
770, 9.863
771, 9.579
772, 9.397
773, 9.102
774, 8.943
775, 8.739
776, 8.517
777, 8.289
778, 8.042
779, 7.816
780, 7.648
781, 7.542
782, 7.32
783, 7.173
784, 7.006
785, 6.852
786, 6.739
787, 6.578
788, 6.42
789, 6.238
790, 6.073
791, 5.921
792, 5.755
793, 5.646
794, 5.514
795, 5.35
796, 5.21
797, 5.072
798, 4.982
799, 4.857
800, 4.719



