# "wavelength [nm]", "intensity/spectrum"
250.985, 0.641977
252.643, 0.65636
253.216, 0.67074
253.792, 0.686716
254.366, 0.701096
254.942, 0.717072
255.515, 0.731452
256.092, 0.747428
256.665, 0.761808
256.7, 0.777782
257.276, 0.793759
258.388, 0.806543
258.965, 0.82252
259.538, 0.836899
259.573, 0.852874
260.149, 0.86885
260.722, 0.88323
261.299, 0.899206
261.872, 0.913586
262.449, 0.929562
264.103, 0.942349
267.362, 0.945557
268.96, 0.932783
271.646, 0.921612
274.349, 0.918428
276.541, 0.929619
279.811, 0.937619
281.951, 0.924848
283.549, 0.912075
285.144, 0.897704
285.655, 0.883329
286.673, 0.852982
286.708, 0.868957
287.146, 0.821035
287.181, 0.83701
288.168, 0.792285
288.202, 0.80826
288.64, 0.760338
288.675, 0.776313
289.117, 0.729988
289.151, 0.745963
289.589, 0.698041
289.624, 0.714016
290.1, 0.683667
290.573, 0.65172
290.607, 0.667694
291.084, 0.637345
291.556, 0.605398
291.591, 0.621372
292.067, 0.591023
292.575, 0.57505
293.627, 0.560677
294.135, 0.544705
294.611, 0.514355
294.646, 0.53033
295.118, 0.498383
295.595, 0.468034
295.629, 0.484008
296.102, 0.452061
296.578, 0.421712
296.613, 0.437686
297.051, 0.389765
297.086, 0.405739
297.562, 0.37539
298.069, 0.359417
299.122, 0.345044
299.598, 0.314695
299.629, 0.329072
300.109, 0.30032
301.162, 0.285947
301.669, 0.269975
302.18, 0.2556
303.233, 0.241227
304.831, 0.228454
305.884, 0.214081
307.479, 0.19971
311.256, 0.191738
315.606, 0.198145
318.882, 0.209341
321.62, 0.222131
324.354, 0.233324
327.085, 0.24292
330.9, 0.25252
334.715, 0.262119
338.526, 0.270122
342.855, 0.266944
344.45, 0.252574
345.503, 0.238201
347.101, 0.225428
348.154, 0.211055
349.207, 0.196682
349.718, 0.182307
351.313, 0.167937
353.453, 0.155166
355.051, 0.142392
359.37, 0.134422
364.252, 0.136039
369.137, 0.139254
374.564, 0.14247
379.987, 0.144089
384.855, 0.139317
389.17, 0.129749
392.943, 0.120179
397.262, 0.11221
401.578, 0.102642
404.809, 0.0930703
408.04, 0.0834986
411.264, 0.0707319
414.496, 0.0611601
417.73, 0.0531858
422.046, 0.0436184
426.913, 0.0388455
432.337, 0.0404646
436.684, 0.0452743
441.575, 0.0516836
445.929, 0.0596882
449.205, 0.0708834
452.481, 0.0820786
455.216, 0.0932716
457.412, 0.10606
459.607, 0.118848
461.261, 0.131634
463.457, 0.144423
465.652, 0.157211
466.768, 0.171593
468.425, 0.185976
470.075, 0.197165
472.274, 0.211551
474.47, 0.224339
476.662, 0.23553
478.858, 0.248318
481.054, 0.261106
482.711, 0.27549
484.903, 0.286681
486.019, 0.301062
487.134, 0.315444
488.249, 0.329825
489.364, 0.344207
490.483, 0.360186
491.598, 0.374567
492.171, 0.388946
492.748, 0.404923
493.863, 0.419305
494.436, 0.433684
496.09, 0.44647
496.667, 0.462447
497.24, 0.476826
497.816, 0.492803
498.932, 0.507184
499.505, 0.521564
500.62, 0.535945
502.277, 0.550329
503.931, 0.563115
506.62, 0.553541
508.215, 0.53917
509.264, 0.5232
510.317, 0.508827
510.828, 0.494452
511.339, 0.480077
511.846, 0.464105
512.357, 0.44973
512.865, 0.433757
513.917, 0.419385
514.425, 0.403412
514.936, 0.389037
515.988, 0.374664
516.496, 0.358692
517.549, 0.344319
518.602, 0.329946
520.742, 0.317175
523.442, 0.312394
526.728, 0.328382
528.924, 0.34117
530.039, 0.355551
531.693, 0.368337
532.812, 0.384316
533.927, 0.398698
535.042, 0.413079
535.619, 0.429056
536.734, 0.443437
538.387, 0.456224
539.503, 0.470605
540.076, 0.484984
541.191, 0.499366
542.848, 0.513749
544.502, 0.526536
546.156, 0.539322
548.351, 0.55211
550.547, 0.564898
553.82, 0.574496
557.096, 0.585691
558.75, 0.598477
560.946, 0.611266
563.142, 0.624054
564.799, 0.638438
565.914, 0.652819
567.029, 0.667201
568.683, 0.679987
569.798, 0.694368
570.371, 0.708747
571.49, 0.724726
572.067, 0.740703
573.182, 0.755085
574.293, 0.767869
574.87, 0.783845
575.443, 0.798225
576.02, 0.814201
577.135, 0.828583
579.991, 0.895687
581.106, 0.910068
585.049, 0.978774
586.703, 0.99156
591.014, 0.980395
591.522, 0.964423
602.087, 0.587468
602.121, 0.603443
602.594, 0.571496
603.612, 0.541149
603.647, 0.557123
604.085, 0.509202
604.12, 0.525176
604.596, 0.494827
605.069, 0.46288
605.103, 0.478854
605.579, 0.448505
606.052, 0.416558
606.087, 0.432532
606.563, 0.402183
607.036, 0.370236
607.07, 0.38621
607.543, 0.354263
608.05, 0.338291
609.069, 0.307944
609.103, 0.323918
609.576, 0.291971
610.087, 0.277596
610.594, 0.261624
611.105, 0.247249
611.613, 0.231276
612.123, 0.216901
612.631, 0.200929
613.145, 0.188152
613.652, 0.172179
614.705, 0.157806
615.758, 0.143434
616.265, 0.127461
617.318, 0.113088
618.371, 0.0987155
619.424, 0.0843427
621.019, 0.0699721
622.617, 0.057199
624.216, 0.0444258
626.898, 0.0316569
629.587, 0.022083
633.906, 0.014113
637.686, 0.00773836
643.103, 0.00616255
648.516, 0.00298928
653.936, 0.00301093
658.811, 0.00143295
664.231, 0.0014546
669.651, 0.00147624
675.071, 0.00149789
679.949, 0.00151737
685.369, 0.00153901
690.789, 0.00156066
696.209, 0.00158231
701.629, 0.00160395
707.05, 0.0016256
712.47, 0.00164724
717.89, 0.00166889
723.306, 9.30768e-05
728.727, 0.000114723
734.15, 0.00173383
739.57, 0.00175547
744.99, 0.00177712
749.865, 0.000199141


