# "wavelength [nm]", "intensity/spectrum"
409.011, 0.00663454
412.478, 0.00994209
415.597, 0.0132464
419.065, 0.0231042
421.84, 0.0362306
424.27, 0.055904
426.007, 0.0722958
428.092, 0.0985161
431.57, 0.154226
434.01, 0.216475
436.106, 0.285272
436.806, 0.31803
437.853, 0.347516
439.252, 0.403206
439.952, 0.435963
441.002, 0.47855
441.702, 0.511307
442.403, 0.544065
443.103, 0.573547
444.152, 0.616134
444.853, 0.648891
445.554, 0.681649
446.253, 0.711132
446.954, 0.743889
447.656, 0.783197
448.703, 0.815958
449.403, 0.84544
450.45, 0.878201
451.497, 0.907687
452.89, 0.937176
454.63, 0.969944
457.405, 0.98307
459.825, 0.956892
461.552, 0.933982
463.281, 0.914348
464.661, 0.88816
467.08, 0.858706
468.805, 0.829246
470.531, 0.796512
472.604, 0.77033
474.33, 0.74087
476.056, 0.714685
477.785, 0.698326
480.203, 0.665598
481.93, 0.639413
484.345, 0.593584
487.802, 0.55759
489.871, 0.511758
492.978, 0.46266
494.703, 0.429925
497.122, 0.400472
499.195, 0.374291
501.614, 0.344837
504.035, 0.321934
506.108, 0.295753
508.529, 0.276125
511.64, 0.243403
514.06, 0.217225
517.865, 0.187784
520.633, 0.168159
523.401, 0.15181
526.169, 0.132185
529.285, 0.119114
532.401, 0.106042
535.171, 0.096243
537.941, 0.0864436
541.057, 0.0766474
544.52, 0.0668545
547.637, 0.0570584
551.101, 0.0505406
554.218, 0.0440195
557.682, 0.0375017
561.147, 0.034259
564.611, 0.0310163
567.729, 0.0277704
570.847, 0.0245245
573.965, 0.0212785
577.43, 0.0180358
580.895, 0.0180683
584.013, 0.0148223
587.478, 0.0115796
590.597, 0.0116088
593.716, 0.011638
597.181, 0.0116704
599.952, 0.00842126
603.418, 0.00845369
606.883, 0.00848612
610.349, 0.00851854
613.813, 0.00527586
615.892, 0.00529531
618.665, 0.00532125
622.13, 0.00535368
625.595, 0.00538611
628.714, 0.00541529
632.179, 0.00544772
635.645, 0.00548015
639.11, 0.00551257
642.576, 0.005545
646.041, 0.00557743



