# "wavelength [nm]", "intensity/spectrum"
309.017, 0.00980392
312.486, 0.00653595
315.956, 0.00326797
318.731, -2.22045e-16
321.853, -2.22045e-16
325.322, -2.22045e-16
328.096, 0.00653595
332.257, 0.0130719
335.724, 0.0196078
340.23, 0.0359477
343.348, 0.0490196
346.12, 0.0653595
348.89, 0.0849673
349.582, 0.0915033
352.006, 0.111111
354.429, 0.133987
356.851, 0.160131
359.274, 0.183007
361.349, 0.20915
363.425, 0.232026
365.843, 0.27451
367.224, 0.303922
368.952, 0.333333
370.332, 0.362745
371.713, 0.392157
372.747, 0.421569
374.126, 0.457516
375.507, 0.486928
377.582, 0.513072
378.962, 0.545752
379.996, 0.575163
380.685, 0.594771
382.066, 0.624183
383.793, 0.653595
386.903, 0.705882
388.284, 0.735294
389.665, 0.764706
391.045, 0.794118
392.774, 0.816993
394.155, 0.846405
395.883, 0.875817
397.958, 0.901961
400.73, 0.915033
403.509, 0.898693
404.902, 0.875817
405.601, 0.849673
407.689, 0.820261
409.085, 0.784314
411.178, 0.735294
412.572, 0.705882
414.318, 0.656863
415.365, 0.627451
416.413, 0.598039
417.46, 0.568627
419.905, 0.496732
420.953, 0.464052
422.004, 0.418301
424.446, 0.359477
425.494, 0.330065
427.237, 0.29085
428.635, 0.245098
432.462, 0.196078
433.859, 0.153595
436.99, 0.117647
439.077, 0.0915033
441.164, 0.0686275
443.945, 0.0424837
446.723, 0.0261438
449.849, 0.00980392
452.974, -0.00326797



