# "wavelength [nm]", "intensity/spectrum"
291.158, 0.245129
295.515, 0.254729
298.668, 0.283425
301.194, 0.30893
303.107, 0.337613
305.026, 0.36948
306.939, 0.398163
308.857, 0.43003
310.156, 0.461891
311.455, 0.493752
312.748, 0.522428
314.047, 0.554289
315.346, 0.58615
316.645, 0.618011
317.944, 0.649872
318.617, 0.678542
319.916, 0.710403
321.835, 0.74227
323.134, 0.774131
324.433, 0.805992
326.345, 0.834675
328.264, 0.866542
330.177, 0.895225
332.71, 0.923914
335.242, 0.952603
339.009, 0.978121
344.611, 0.990919
348.289, 0.968665
351.335, 0.940035
353.761, 0.911399
355.567, 0.882755
357.367, 0.850927
358.548, 0.819093
359.734, 0.790443
360.915, 0.758608
362.715, 0.72678
363.896, 0.694946
364.462, 0.666289
366.262, 0.634461
366.823, 0.60262
368.004, 0.570786
368.564, 0.538944
369.745, 0.50711
370.931, 0.47846
372.111, 0.446625
373.292, 0.414791
374.472, 0.382956
375.033, 0.351115
376.214, 0.31928
377.4, 0.290631
378.58, 0.258796
380.381, 0.226968
381.561, 0.195133
383.367, 0.16649
385.794, 0.137853
387.594, 0.106025
391.856, 0.0646694
397.995, 0.0328874
407.877, 0.013884
423.963, -0.00186875
436.98, -0.00173057


