# "wavelength [nm]", "sensitivity"
300.309, 9.12346
307.5, 10.4694
313.923, 12.6936
319.528, 15.8199
325.237, 19.1809
334.007, 23.2559
343.024, 25.9623
352.286, 28.9835
362.88, 30.6236
372.677, 34.1873
383.88, 37.1297
394.249, 40.3253
406.111, 41.4505
418.329, 42.6071
430.919, 42.6071
443.889, 42.6071
457.243, 43.796
471.005, 43.796
485.181, 43.796
499.784, 43.796
514.826, 43.796
528.757, 42.6071
544.671, 42.6071
561.071, 41.4505
577.965, 40.3253
593.611, 38.1657
611.492, 36.1218
629.911, 34.1873
646.964, 32.3564
666.452, 30.6236
684.502, 28.1968
700.984, 23.9049
709.423, 18.6602
715.839, 14.5662
722.32, 11.0618
726.703, 8.40045
731.112, 6.37942
735.548, 4.84461
740.072, 3.03439
742.357, 2.30436
744.65, 1.74996
749.168, 1.32894
751.481, 1.00922


