# "wavelength [nm]", "intensity/spectrum"
300, 0.510679
301, 0.434942
302, 0.373436
303, 0.325123
304, 0.28586
305, 0.255197
306, 0.232572
307, 0.215417
308, 0.202159
309, 0.19153
310, 0.182908
311, 0.17816
312, 0.17064
313, 0.16535
314, 0.161475
315, 0.155556
316, 0.151142
317, 0.145898
318, 0.143129
319, 0.139685
320, 0.13581
321, 0.131287
322, 0.128361
323, 0.1271
324, 0.122845
325, 0.118612
326, 0.116248
327, 0.110821
328, 0.106948
329, 0.105284
330, 0.101457
331, 0.0943656
332, 0.0906262
333, 0.0859682
334, 0.080968
335, 0.0776609
336, 0.0742839
337, 0.0716723
338, 0.0691284
339, 0.0673048
340, 0.0652786
341, 0.0632299
342, 0.0612037
343, 0.0600556
344, 0.0585922
345, 0.0571964
346, 0.0571964
347, 0.0542449
348, 0.0531643
349, 0.0519261
350, 0.0505527
351, 0.0493596
352, 0.0482789
353, 0.0468628
354, 0.0476508
355, 0.0466377
356, 0.0458498
357, 0.0452847
358, 0.0459173
359, 0.0443864
360, 0.043326
361, 0.0425178
362, 0.0423602
363, 0.0410072
364, 0.0414372
365, 0.0387108
366, 0.0386883
367, 0.037655
368, 0.0367094
369, 0.0366171
370, 0.0361916
371, 0.0350637
372, 0.0345009
373, 0.033893
374, 0.0336927
375, 0.0323869
376, 0.0337152
377, 0.031259
378, 0.0302932
379, 0.0286925
380, 0.0282647
381, 0.0276119
382, 0.0263736
383, 0.0250003
384, 0.0267113
385, 0.0288501
386, 0.0277694
387, 0.0274543
388, 0.0266685
389, 0.0266685
390, 0.0260134
391, 0.0264885
392, 0.0256757
393, 0.026171
394, 0.0253155
395, 0.0254506
396, 0.0247527
397, 0.0248675
398, 0.0241448
399, 0.0241246
400, 0.0229967
401, 0.0234042
402, 0.0230642
403, 0.0229314
404, 0.0227062
405, 0.0228863
406, 0.0220736
407, 0.0229066
408, 0.0216256
409, 0.0222762
410, 0.0215355
411, 0.0220511
412, 0.021468
413, 0.0219611
414, 0.0215355
415, 0.0217359
416, 0.0216008
417, 0.0220511
418, 0.0218732
419, 0.022346
420, 0.0220511
421, 0.0214005
422, 0.0221659
423, 0.021916
424, 0.0219611
425, 0.0224563
426, 0.0237869
427, 0.0243272
428, 0.0251827
429, 0.0255204
430, 0.0265785
431, 0.0272516
432, 0.0271616
433, 0.0275443
434, 0.0284899
435, 0.0289626
436, 0.0296628
437, 0.030426
438, 0.0313963
439, 0.0325445
440, 0.0331951
441, 0.0341654
442, 0.035604
443, 0.0369323
444, 0.0379702
445, 0.0392084
446, 0.0408068
447, 0.0422927
448, 0.0431234
449, 0.0448794
450, 0.0471555
451, 0.0488418
452, 0.0502376
453, 0.052714
454, 0.0545173
455, 0.0571514
456, 0.0603032
457, 0.0632975
458, 0.0661093
459, 0.0688357
460, 0.0723928
461, 0.0757675
462, 0.0785816
463, 0.0822513
464, 0.0858084
465, 0.0895455
466, 0.0935529
467, 0.097585
468, 0.103033
469, 0.107356
470, 0.112104
471, 0.117417
472, 0.123565
473, 0.129261
474, 0.135022
475, 0.141846
476, 0.148532
477, 0.155782
478, 0.162826
479, 0.170933
480, 0.179195
481, 0.187613
482, 0.195697
483, 0.20522
484, 0.215081
485, 0.225505
486, 0.236424
487, 0.24777
488, 0.259767
489, 0.271927
490, 0.284894
491, 0.297569
492, 0.310627
493, 0.324605
494, 0.339352
495, 0.353942
496, 0.369114
497, 0.385461
498, 0.401848
499, 0.419161
500, 0.436361
501, 0.454956
502, 0.473645
503, 0.492779
504, 0.512095
505, 0.532199
506, 0.552756
507, 0.573558
508, 0.594335
509, 0.616198
510, 0.637944
511, 0.659151
512, 0.681079
513, 0.702694
514, 0.724621
515, 0.746547
516, 0.768925
517, 0.790177
518, 0.810912
519, 0.831311
520, 0.85094
521, 0.869876
522, 0.887457
523, 0.904049
524, 0.920056
525, 0.934374
526, 0.947634
527, 0.960062
528, 0.970891
529, 0.980168
530, 0.986897
531, 0.993338
532, 0.997886
533, 1
534, 0.998832
535, 0.997166
536, 0.993471
537, 0.986447
538, 0.97839
539, 0.966976
540, 0.953738
541, 0.938361
542, 0.920641
543, 0.901597
544, 0.880007
545, 0.856684
546, 0.831264
547, 0.805106
548, 0.777392
549, 0.748553
550, 0.718498
551, 0.687722
552, 0.656427
553, 0.624483
554, 0.592469
555, 0.561491
556, 0.529252
557, 0.498092
558, 0.466733
559, 0.437464
560, 0.407388
561, 0.377984
562, 0.35
563, 0.322559
564, 0.296061
565, 0.270689
566, 0.247252
567, 0.224739
568, 0.203507
569, 0.183383
570, 0.165505
571, 0.147877
572, 0.132501
573, 0.117712
574, 0.104497
575, 0.0921571
576, 0.0813305
577, 0.0713121
578, 0.0626423
579, 0.05447
580, 0.0476035
581, 0.0415272
582, 0.0364168
583, 0.0317115
584, 0.0277694
585, 0.0241246
586, 0.0213329
587, 0.0179537
588, 0.0160626
589, 0.0144417
590, 0.012438
591, 0.0108846
592, 0.00926363
593, 0.008613
594, 0.00796012
595, 0.00645174
596, 0.00530132
597, 0.00507619
598, 0.00433325
599, 0.00410812
600, 0.00370514
601, 0.00345524
602, 0.00269205
603, 0.00226429
604, 0.00199414
605, 0.00185906
606, 0.00111387
607, 0.00151911
608, 0.00095628
609, 0.000978793
610, 0.000596
611, 0.000258
612, 0.000168
613, -7.71e-05
614, -0.000237
615, -0.000147
616, -3.2e-05
617, -0.00019
618, -3.2e-05
619, -0.000482
620, 1.07e-05
621, -7.71e-05
622, -0.000282
623, -0.000437
624, -0.00053
625, -0.000282
626, -0.000482
627, -0.000302
628, -0.000417
629, -0.00102263
630, -0.000865
631, -0.000347
632, -0.000572
633, -0.000482
634, -3.2e-05
635, -0.000282
636, -0.000282
637, -0.000507
638, -0.000259
639, -0.000237
640, -0.000395
641, 0.000146
642, -0.000302
643, -0.00019
644, 0.000396
645, 0.000326
646, 0.000146
647, 0.000303
648, 0.000551
649, 0.000396
650, 0


