# "wavelength [nm]", "intensity/spectrum"
500, 0.561824
501, 0.605631
502, 0.658631
503, 0.717718
504, 0.779788
505, 0.840405
506, 0.895309
507, 0.947058
508, 1.00297
509, 1.0473
510, 1.08447
511, 1.12469
512, 1.17053
513, 1.21399
514, 1.24988
515, 1.28686
516, 1.31106
517, 1.32438
518, 1.32946
519, 1.32879
520, 1.33235
521, 1.32582
522, 1.31563
523, 1.3053
524, 1.27621
525, 1.24367
526, 1.20448
527, 1.16621
528, 1.12266
529, 1.06971
530, 1.01454
531, 0.960605
532, 0.901504
533, 0.846654
534, 0.788811
535, 0.73684
536, 0.677951
537, 0.623117
538, 0.568627
539, 0.514138
540, 0.467047
541, 0.426146
542, 0.388671
543, 0.352985
544, 0.319373
545, 0.293142
546, 0.270251
547, 0.243239
548, 0.218079
549, 0.199403
550, 0.186607
551, 0.171925
552, 0.159747
553, 0.150241
554, 0.139513
555, 0.129669
556, 0.11609
557, 0.108733
558, 0.106074
559, 0.101843
560, 0.100219
561, 0.0957
562, 0.0925
563, 0.0901327
564, 0.0836
565, 0.0827
566, 0.0854473
567, 0.086
568, 0.0851
569, 0.0805
570, 0.0789
571, 0.0754
572, 0.0706
573, 0.0717
574, 0.0705
575, 0.0702415
576, 0.0702
577, 0.0691
578, 0.07
579, 0.0687
580, 0.0682
581, 0.0693
582, 0.0684
583, 0.0715
584, 0.0729
585, 0.0745166
586, 0.0765
587, 0.0758
588, 0.0749
589, 0.0751895
590, 0.0766
591, 0.0783484
592, 0.0793
593, 0.0818
594, 0.0825
595, 0.0814
596, 0.0787
597, 0.0773
598, 0.0748
599, 0.0755
600, 0.0748
601, 0.0725
602, 0.070934
603, 0.0687
604, 0.0668
605, 0.0679
606, 0.067
607, 0.0706
608, 0.0716
609, 0.0701
610, 0.0687
611, 0.0685
612, 0.0704
613, 0.0714
614, 0.0714
615, 0.0718
616, 0.0734
617, 0.0712
618, 0.0666
619, 0.067
620, 0.068
621, 0.0652
622, 0.0644
623, 0.0646
624, 0.0673
625, 0.0675388
626, 0.0672
627, 0.0679
628, 0.0673
629, 0.0644
630, 0.0632
631, 0.0625
632, 0.062
633, 0.0619
634, 0.0645
635, 0.0646
636, 0.0663
637, 0.0675
638, 0.0703
639, 0.0685
640, 0.0668
641, 0.0652
642, 0.0641
643, 0.0609
644, 0.0615
645, 0.0623
646, 0.0636
647, 0.0632
648, 0.063
649, 0.0634
650, 0.0649
611, 0.00784093
612, 0.0194036
613, 0.0201123
614, 0.0196032
615, 0.0190868
616, 0.0201923
617, 0.0168706
618, 0.0238858
619, 0.0291314
620, 0.0178347
621, 0.00593829
622, -0.00214487
623, -0.0183501
624, -0.0146265
625, -0.0117059
626, -0.0129866
627, -0.0150767
628, -0.0234868
629, -0.0158548
630, -0.00592254
631, -0.00353386
632, 0.0152188
633, 0.0329944
634, 0.0302536
635, 0.0203255
636, 0.00760957
637, 0.00226845
638, 0.0191322
639, 0.0223767
640, 0.0243907
641, 0.0332153
642, 0.0211051
643, 0.00943256
644, -0.00398618
645, -0.00484632
646, -0.000756231
647, -0.00983119
648, -0.0119712
649, -0.0112466
650, -0.00424103
651, 0.0075431
652, 0.0140065
653, 0.0323932
654, 0.0217812
655, 0.0109426
656, 0.00363252
657, -0.00558809
658, 0.00137415
659, -0.00100474
660, 0.0236138
661, 0.042999
662, 0.0423094
663, 0.0348616
664, 0.0345662
665, 0.0196217
666, 0.00326882
667, -0.0117606
668, 0.00204727
669, -0.00282857
670, -0.0076908
671, 0.00214128
672, 0.0184122
673, 0.0130494
674, -0.000253374
675, -0.00277407
676, -0.0115189
677, -0.0409331
678, -0.00370925
679, 0.0317496
680, 0.0625954
681, 0.0623202
682, 0.0463223
683, 0.0395157
684, 0.0131862
685, -0.0243478
686, 0.0042152
687, 0.00122314
688, 0.0123518
689, -0.00199338
690, -0.0144136
691, 0.00246712
692, 0.00130543
693, -0.00242861
694, 0.0125096
695, 0.012078
696, 0.0104295
697, -0.00850083
698, -0.0197764
699, -0.0128876
700, 0.022675


