# "wavelength [nm]", "intensity/spectrum"
403.256, 178.734
404.806, 193.563
406.357, 210.244
407.597, 226.922
409.147, 243.603
410.388, 260.281
411.938, 276.962
413.178, 293.641
414.419, 310.319
415.659, 326.997
416.899, 343.675
418.14, 360.353
419.38, 378.883
420.62, 395.561
421.86, 412.239
422.791, 428.915
424.341, 445.596
425.581, 462.274
427.132, 478.955
428.372, 495.633
429.922, 512.314
431.473, 527.143
432.713, 543.821
434.884, 558.656
436.744, 573.488
438.605, 588.32
441.085, 599.454
443.876, 606.888
446.357, 610.614
448.837, 610.637
451.628, 610.663
454.109, 601.427
456.279, 592.188
458.76, 581.1
460.93, 570.009
462.791, 555.211
464.651, 540.413
466.512, 527.468
468.682, 512.673
470.853, 499.73
473.023, 486.787
475.504, 477.551
477.674, 464.608
479.535, 449.811
481.705, 436.868
483.566, 423.922
485.426, 409.124
487.287, 394.327
489.147, 379.529
491.318, 366.586
493.178, 351.789
495.039, 336.991
496.589, 322.191
498.45, 307.393
500.31, 292.595
502.171, 277.798
504.341, 263.003
506.512, 250.06
508.372, 235.263


