# "wavelength [nm]", "intensity/spectrum"
300.31, 53.7066
303.411, 55.5871
305.891, 66.7212
308.372, 76.0034
310.543, 88.9865
312.403, 101.967
314.574, 116.802
316.434, 131.634
318.295, 146.466
320.155, 161.298
322.326, 174.281
324.186, 189.113
326.357, 202.096
328.217, 215.076
330.388, 228.059
332.558, 242.894
334.419, 257.726
335.659, 274.404
337.209, 291.085
338.45, 307.763
339.69, 324.442
340.93, 341.12
341.86, 359.647
342.791, 376.322
344.031, 394.852
344.961, 411.527
345.891, 430.055
346.822, 446.73
348.062, 465.26
348.992, 481.935
349.922, 498.61
351.163, 517.14
352.713, 533.821
353.953, 550.5
355.194, 567.178
356.744, 582.007
358.605, 596.839
361.085, 606.121
363.876, 606.147
366.357, 596.911
367.907, 582.11
369.457, 565.458
370.698, 548.803
371.628, 530.293
372.558, 513.635
373.798, 495.128
374.729, 478.47
375.659, 459.96
376.279, 443.299
377.209, 424.789
378.14, 406.279
378.76, 389.618
379.69, 371.108
380.62, 354.45
381.24, 335.937
382.171, 317.428
383.101, 300.769
384.031, 282.26
384.961, 265.601
385.891, 247.092
386.822, 230.434
387.752, 211.924
388.992, 195.268
390.233, 178.613
391.473, 161.958
393.023, 145.306
394.574, 128.653
396.124, 112.001
397.674, 97.2007
399.535, 82.4031
401.395, 67.6055
403.566, 54.6626
406.047, 43.5745


