# "wavelength [nm]", "sensitivity"
400.91, 29.4163
405.072, 30.8171
410.273, 32.2179
412.354, 33.7743
415.475, 35.1751
417.555, 36.7315
420.676, 38.2879
423.797, 39.6887
426.918, 41.2451
428.999, 42.6459
432.12, 44.2023
436.281, 45.6031
439.402, 47.1595
443.563, 48.5603
447.724, 49.9611
450.845, 51.5175
456.047, 52.9183
460.208, 54.3191
464.369, 55.7198
469.571, 57.1206
474.772, 58.3658
479.974, 59.7665
486.216, 61.0117
491.417, 62.2568
497.659, 63.5019
504.941, 64.7471
511.183, 65.8366
519.506, 66.9261
526.788, 68.0156
535.111, 68.7938
544.473, 69.572
553.836, 70.3502
563.199, 70.8171
573.602, 71.1284
584.005, 71.284
594.408, 71.284
603.771, 71.1284
614.174, 70.8171
623.537, 70.5058
632.9, 69.8833
642.263, 69.1051
651.625, 68.3268
659.948, 67.5486
669.311, 66.6148
676.593, 65.6809
684.915, 64.5914
692.198, 63.5019
699.48, 62.5681
706.762, 61.4786
714.044, 60.3891
720.286, 59.144
727.568, 57.8988
733.81, 56.8093
740.052, 55.5642
746.294, 54.3191
752.536, 53.0739
758.778, 51.8288
765.02, 50.428
770.221, 49.1829
776.463, 47.9377
781.664, 46.537
787.906, 45.2918
793.108, 43.8911
798.309, 42.6459
803.511, 41.2451
808.713, 39.8444
813.914, 38.5992
819.116, 37.1984
824.317, 35.9533
829.519, 34.5525
834.72, 33.1518
839.922, 31.9066
845.124, 30.5058
850.325, 29.1051
855.527, 27.8599
861.769, 26.4591
866.97, 25.214
873.212, 23.8132
878.414, 22.5681
884.655, 21.323
890.897, 20.0778
897.139, 18.8327
903.381, 17.5875
909.623, 16.3424
916.905, 15.2529
924.187, 14.1634
931.469, 12.9183
937.711, 11.8288
946.034, 10.7393
953.316, 9.80545
961.638, 8.71595
968.921, 7.7821
977.243, 6.84825
985.566, 5.9144
993.888, 4.98054
1002.21, 4.04669


