# "wavelength [nm]", "intensity/spectrum"
500, 0.0997229
501, 0.111141
502, 0.126421
503, 0.143953
504, 0.16365
505, 0.184397
506, 0.207239
507, 0.231138
508, 0.257012
509, 0.283587
510, 0.310006
511, 0.339286
512, 0.367454
513, 0.397735
514, 0.428905
515, 0.461821
516, 0.494377
517, 0.527142
518, 0.563456
519, 0.59973
520, 0.635798
521, 0.664959
522, 0.692597
523, 0.720084
524, 0.752241
525, 0.783145
526, 0.814048
527, 0.841869
528, 0.864396
529, 0.884583
530, 0.903638
531, 0.92277
532, 0.935948
533, 0.953209
534, 0.968941
535, 0.981097
536, 0.986281
537, 0.992353
538, 0.997445
539, 1
540, 0.994176
541, 0.992762
542, 0.98803
543, 0.98614
544, 0.983626
545, 0.967615
546, 0.947401
547, 0.937578
548, 0.922987
549, 0.913301
550, 0.901404
551, 0.885431
552, 0.871745
553, 0.856941
554, 0.837665
555, 0.825746
556, 0.813725
557, 0.800645
558, 0.787746
559, 0.77265
560, 0.759804
561, 0.749009
562, 0.732253
563, 0.722635
564, 0.711264
565, 0.701757
566, 0.69198
567, 0.679549
568, 0.669121
569, 0.657328
570, 0.645554
571, 0.634815
572, 0.626348
573, 0.61417
574, 0.607083
575, 0.596211
576, 0.584569
577, 0.576596
578, 0.563957
579, 0.553947
580, 0.544513
581, 0.536887
582, 0.526721
583, 0.517687
584, 0.505759
585, 0.495936
586, 0.488569
587, 0.477225
588, 0.467677
589, 0.457739
590, 0.448719
591, 0.439246
592, 0.427936
593, 0.417692
594, 0.407661
595, 0.399947
596, 0.392213
597, 0.383645
598, 0.375763
599, 0.3661
600, 0.357078
601, 0.347848
602, 0.340371
603, 0.331253
604, 0.321765
605, 0.315083
606, 0.308495
607, 0.304099
608, 0.292239
609, 0.284658
610, 0.276819
611, 0.267987
612, 0.259553
613, 0.252554
614, 0.246895
615, 0.243213
616, 0.236202
617, 0.233365
618, 0.227266
619, 0.221004
620, 0.216286
621, 0.212065
622, 0.206487
623, 0.203107
624, 0.197278
625, 0.19294
626, 0.187714
627, 0.184283
628, 0.180242
629, 0.176441
630, 0.171486
631, 0.168846
632, 0.164291
633, 0.15953
634, 0.156827
635, 0.151687
636, 0.149136
637, 0.145337
638, 0.141872
639, 0.140141
640, 0.135968
641, 0.13313
642, 0.130363
643, 0.125902
644, 0.123415
645, 0.121576
646, 0.120513
647, 0.11574
648, 0.113512
649, 0.109679
650, 0.107279
651, 0.103921
652, 0.103933
653, 0.0998145
654, 0.0979329
655, 0.0956504
656, 0.0917351
657, 0.0909633
658, 0.0857102
659, 0.084832
660, 0.0827271
661, 0.0818322
662, 0.0766774
663, 0.0755306
664, 0.076844
665, 0.0714944
666, 0.0693412
667, 0.0683244
668, 0.0659695
669, 0.065263
670, 0.064179
671, 0.0619667
672, 0.0608533
673, 0.0596417
674, 0.059229
675, 0.0573474
676, 0.056552
677, 0.0553053
678, 0.0529772
679, 0.0526516
680, 0.0521423
681, 0.0516735
682, 0.0489675
683, 0.0481328
684, 0.047732
685, 0.0465672
686, 0.0455772
687, 0.0431365
688, 0.042972
689, 0.0425871
690, 0.0417711
691, 0.0412496
692, 0.0391755
693, 0.0377624
694, 0.0370151
695, 0.0362938
696, 0.0343321
697, 0.0337857
698, 0.0334424
699, 0.0326651
700, 0.0314625


