# "wavelength [nm]", "intensity/spectrum"
480, 2.07528
481, 1.48906
482, 1.58163
483, 1.7629
484, 2.14982
485, 2.45607
486, 2.73438
487, 3.35668
488, 3.77263
489, 4.41393
490, 5.1981
491, 6.14854
492, 7.25663
493, 8.50321
494, 9.97966
495, 11.6036
496, 13.5909
497, 15.8982
498, 18.3046
499, 21.5714
500, 24.4015
501, 28.1678
502, 31.8569
503, 36.088
504, 40.8259
505, 44.9541
506, 49.649
507, 54.8878
508, 59.5556
509, 64.432
510, 69.5912
511, 73.8288
512, 78.2928
513, 82.9311
514, 86.9272
515, 89.9568
516, 92.8203
517, 95.7985
518, 97.0906
519, 98.8521
520, 99.815
521, 99.8537
522, 100
523, 99.5815
524, 98.449
525, 98.058
526, 96.9663
527, 95.3291
528, 94.0926
529, 92.5568
530, 90.1719
531, 89.2224
532, 86.315
533, 84.8787
534, 82.8251
535, 82.0549
536, 79.4361
537, 78.1358
538, 76.6898
539, 75.2259
540, 73.7289
541, 72.2503
542, 70.9149
543, 69.6085
544, 67.9046
545, 67.1084
546, 66.2231
547, 64.6022
548, 63.2948
549, 62.753
550, 61.5185
551, 60.1749
552, 59.3778
553, 57.9414
554, 57.2808
555, 55.7808
556, 54.6778
557, 54.1757
558, 52.6533
559, 51.7215
560, 50.8302
561, 49.133
562, 48.4657
563, 47.3787
564, 46.178
565, 44.8029
566, 43.6331
567, 42.7886
568, 41.2149
569, 39.9246
570, 39.0322
571, 38.3592
572, 37.0938
573, 35.8039
574, 34.4303
575, 33.6418
576, 32.6445
577, 31.7718
578, 30.5228
579, 30.0697
580, 28.7656
581, 27.8886
582, 27.1216
583, 26.3727
584, 25.5939
585, 24.9757
586, 24.4996
587, 23.2509
588, 22.7853
589, 22.3039
590, 21.2214
591, 21.3808
592, 20.2133
593, 19.6944
594, 19.1374
595, 18.6308
596, 18.2791
597, 17.8265
598, 17.0533
599, 16.9842
600, 16.1416
601, 15.7981
602, 15.4045
603, 15.0009
604, 14.4018
605, 14.301
606, 13.6676
607, 13.237
608, 13.0091
609, 12.2289
610, 12.0506
611, 11.7907
612, 11.3222
613, 11.3579
614, 10.8862
615, 10.4945
616, 10.15
617, 9.79699
618, 9.20711
619, 9.1384
620, 8.77717
621, 8.53185
622, 8.32451
623, 8.33995
624, 7.79248
625, 7.71531
626, 7.4309
627, 7.27335
628, 6.94581
629, 6.83786
630, 6.55732
631, 6.25359
632, 6.0233
633, 5.83522
634, 5.85372
635, 5.41319
636, 5.16099
637, 5.23597
638, 5.14371
639, 4.79146
640, 4.70859
641, 4.57032
642, 4.60642
643, 4.48088
644, 4.37059
645, 3.79754
646, 4.02785
647, 3.8307
648, 3.53458
649, 3.55756
650, 3.13377
651, 3.34865
652, 3.05041
653, 3.00607
654, 2.75655
655, 3.01668
656, 2.8862
657, 2.94245
658, 2.70039
659, 2.45148
660, 2.41602
661, 2.42321
662, 2.228
663, 2.3462
664, 2.16784
665, 2.07797
666, 2.0333
667, 1.81935
668, 1.64846
669, 1.81631
670, 1.41663
671, 1.61022
672, 1.68135
673, 1.57337
674, 1.46287


