# "wavelength [nm]", "intensity/spectrum"
500, 0.316427
501, 0.339041
502, 0.398133
503, 0.473179
504, 0.562767
505, 0.648771
506, 0.745262
507, 0.818349
508, 0.880234
509, 0.940427
510, 0.978521
511, 0.995929
512, 1
513, 0.996947
514, 0.976352
515, 0.94207
516, 0.912004
517, 0.866596
518, 0.818111
519, 0.767176
520, 0.729098
521, 0.683094
522, 0.652513
523, 0.621829
524, 0.587648
525, 0.555372
526, 0.521748
527, 0.499327
528, 0.478598
529, 0.458618
530, 0.43768
531, 0.419717
532, 0.40628
533, 0.395008
534, 0.380613
535, 0.371217
536, 0.361178
537, 0.350819
538, 0.338468
539, 0.331441
540, 0.32256
541, 0.306357
542, 0.298395
543, 0.288497
544, 0.27842
545, 0.268423
546, 0.255511
547, 0.242923
548, 0.233329
549, 0.222501
550, 0.212993
551, 0.204225
552, 0.192705
553, 0.185176
554, 0.175836
555, 0.164908
556, 0.159265
557, 0.15292
558, 0.14535
559, 0.138126
560, 0.132421
561, 0.128489
562, 0.121278
563, 0.118336
564, 0.116216
565, 0.112884
566, 0.111458
567, 0.111355
568, 0.11299
569, 0.114424
570, 0.121742
571, 0.124897
572, 0.136565
573, 0.148752
574, 0.160573
575, 0.176209
576, 0.194059
577, 0.210908
578, 0.228678
579, 0.244575
580, 0.261879
581, 0.267441
582, 0.270562
583, 0.269876
584, 0.263807
585, 0.251332
586, 0.236987
587, 0.222747
588, 0.203088
589, 0.187153
590, 0.16869
591, 0.151191
592, 0.135368
593, 0.126045
594, 0.111815
595, 0.104611
596, 0.0956291
597, 0.0882278
598, 0.0829898
599, 0.0757674
600, 0.0697581
601, 0.064959
602, 0.0605814
603, 0.0585739
604, 0.0527293
605, 0.0497295
606, 0.0473181
607, 0.0443886
608, 0.0421698
609, 0.0399597
610, 0.0380218
611, 0.03564
612, 0.0350062
613, 0.0340965
614, 0.0321437
615, 0.0317769
616, 0.0307258
617, 0.0315003
618, 0.029843
619, 0.0302721
620, 0.0299849
621, 0.0303391
622, 0.0291753
623, 0.0296244
624, 0.029013
625, 0.0279606
626, 0.0274479
627, 0.0275806
628, 0.0253786
629, 0.025919
630, 0.0249327
631, 0.0250115
632, 0.0230166
633, 0.0234226
634, 0.0220495
635, 0.0221972
636, 0.0212571
637, 0.0214909
638, 0.019856
639, 0.0198591
640, 0.0189761
641, 0.0194126
642, 0.019833
643, 0.0184129
644, 0.017965
645, 0.0176718
646, 0.0176588
647, 0.016687
648, 0.0169855
649, 0.0172243
650, 0.0170187
651, 0.0168792
652, 0.0172234
653, 0.0176537
654, 0.0183667
655, 0.0173883
656, 0.018059
657, 0.0190004
658, 0.0196075
659, 0.0199717
660, 0.0209751
661, 0.0209161
662, 0.0226438
663, 0.0229256
664, 0.023712
665, 0.0248527
666, 0.0260736
667, 0.0269172
668, 0.0273866
669, 0.0280896
670, 0.028677
671, 0.029223
672, 0.0300891
673, 0.03087
674, 0.0294116
675, 0.0298822
676, 0.030184
677, 0.0310279
678, 0.0304924
679, 0.0300585
680, 0.0288928
681, 0.0279166
682, 0.0275637
683, 0.0266597
684, 0.0251894
685, 0.0243053
686, 0.0243837
687, 0.0235945
688, 0.0224625
689, 0.0206682
690, 0.0192461
691, 0.0182001
692, 0.0178622
693, 0.0165021
694, 0.0154123
695, 0.0143496
696, 0.013569
697, 0.0131376
698, 0.0121676
699, 0.0106554
700, 0.00983677
701, 0.0100521
702, 0.00871664
703, 0.00852348
704, 0.00789046
705, 0.00730655
706, 0.007092
707, 0.00618944
708, 0.00618006
709, 0.00564881
710, 0.00594413
711, 0.00536827
712, 0.00507976
713, 0.00514582
714, 0.00468335
715, 0.004449
716, 0.00401653
717, 0.00370013
718, 0.00408224
719, 0.0036752
720, 0.00387078
721, 0.00338678
722, 0.00336635
723, 0.00315048
724, 0.00316823
725, 0.00316693
726, 0.00296484
727, 0.00275614
728, 0.00291967
729, 0.00238658
730, 0.00245357
731, 0.00264288
732, 0.00230172
733, 0.00243732
734, 0.00228361
735, 0.00231248
736, 0.00213923
737, 0.00243192
738, 0.00221569
739, 0.00216502
740, 0.00245355
741, 0.00207338
742, 0.00190776
743, 0.00237552
744, 0.00195917
745, 0.00195009
746, 0.00159171
747, 0.00159016
748, 0.00170936
749, 0.00149982
750, 0.00154591
751, 0.00137414
752, 0.00159916
753, 0.00150976
754, 0.00142616
755, 0.00139767
756, 0.00152841
757, 0.001265
758, 0.00129828
759, 0.00131023
760, 0.00129636
761, 0.0012357
762, 0.00123826
763, 0.00113074
764, 0.00111849
765, 0.00118597
766, 0.00110969
767, 0.00113926
768, 0.00100662
769, 0.00114766
770, 0.00102237
771, 0.000980291
772, 0.00106925
773, 0.00105572
774, 0.000919009
775, 0.000822657
776, 0.000915916
777, 0.000848058
778, 0.000737334
779, 0.000839993
780, 0.000912098
781, 0.000829204
782, 0.000830046
783, 0.000727707
784, 0.000867403
785, 0.000804929
786, 0.00077891
787, 0.000978188
788, 0.00101125
789, 0.000839824
790, 0.000846466
791, 0.000826212
792, 0.000778544
793, 0.00083387
794, 0.000944655
795, 0.000826472
796, 0.000793002
797, 0.000956472
798, 0.000994901
799, 0.000829957
800, 0.00092083


