# "wavelength [nm]", "intensity/spectrum"
350, 0.0012
351, 0.0019
352, 0.0024
353, 0.0029
354, 0.0036
355, 0.0043
356, 0.0052
357, 0.0061
358, 0.0072
359, 0.0084
360, 0.0096
361, 0.011
362, 0.0124
363, 0.014
364, 0.0155
365, 0.0171
366, 0.0187
367, 0.0202
368, 0.0216
369, 0.0228
370, 0.0237
371, 0.024
372, 0.024
373, 0.0234
374, 0.0226
375, 0.0216
376, 0.0209
377, 0.0206
378, 0.021
379, 0.0221
380, 0.0238
381, 0.0262
382, 0.0291
383, 0.0323
384, 0.0359
385, 0.0396
386, 0.0434
387, 0.0473
388, 0.0513
389, 0.0551
390, 0.0588
391, 0.0622
392, 0.0654
393, 0.0684
394, 0.0712
395, 0.0737
396, 0.0761
397, 0.0783
398, 0.0802
399, 0.0819
400, 0.0834
401, 0.0845
402, 0.0855
403, 0.0862
404, 0.0866
405, 0.0869
406, 0.0871
407, 0.0872
408, 0.0871
409, 0.0871
410, 0.087
411, 0.087
412, 0.0871
413, 0.0873
414, 0.0875
415, 0.0878
416, 0.0882
417, 0.0888
418, 0.0895
419, 0.0902
420, 0.091
421, 0.0918
422, 0.0925
423, 0.0934
424, 0.0943
425, 0.0952
426, 0.0959
427, 0.0967
428, 0.0973
429, 0.0978
430, 0.0983
431, 0.0986
432, 0.0987
433, 0.0987
434, 0.0986
435, 0.0984
436, 0.0982
437, 0.098
438, 0.0978
439, 0.0977
440, 0.0977
441, 0.0979
442, 0.0984
443, 0.0989
444, 0.0997
445, 0.1006
446, 0.1016
447, 0.1028
448, 0.1041
449, 0.1054
450, 0.1067
451, 0.108
452, 0.1092
453, 0.1104
454, 0.1116
455, 0.1127
456, 0.1137
457, 0.1145
458, 0.1153
459, 0.116
460, 0.1166
461, 0.117
462, 0.1174
463, 0.1176
464, 0.1177
465, 0.1177
466, 0.1177
467, 0.1176
468, 0.1174
469, 0.1171
470, 0.1167
471, 0.1163
472, 0.116
473, 0.1156
474, 0.1152
475, 0.1147
476, 0.1142
477, 0.1137
478, 0.1133
479, 0.1128
480, 0.1124
481, 0.1118
482, 0.1113
483, 0.1108
484, 0.1104
485, 0.1101
486, 0.1096
487, 0.1091
488, 0.1087
489, 0.1084
490, 0.1081
491, 0.1078
492, 0.1075
493, 0.1072
494, 0.1069
495, 0.1067
496, 0.1065
497, 0.1063
498, 0.1061
499, 0.1059
500, 0.1057
501, 0.1055
502, 0.1055
503, 0.1053
504, 0.1052
505, 0.1051
506, 0.105
507, 0.1051
508, 0.1051
509, 0.1052
510, 0.1052
511, 0.1053
512, 0.1054
513, 0.1056
514, 0.1058
515, 0.106
516, 0.1062
517, 0.1063
518, 0.1066
519, 0.1069
520, 0.1072
521, 0.1075
522, 0.1078
523, 0.1082
524, 0.1085
525, 0.1089
526, 0.1094
527, 0.1098
528, 0.1103
529, 0.1107
530, 0.1111
531, 0.1116
532, 0.1121
533, 0.1126
534, 0.1131
535, 0.1135
536, 0.1139
537, 0.1144
538, 0.1148
539, 0.1151
540, 0.1154
541, 0.1158
542, 0.1161
543, 0.1163
544, 0.1166
545, 0.1167
546, 0.1168
547, 0.1169
548, 0.1169
549, 0.117
550, 0.117
551, 0.117
552, 0.1169
553, 0.1168
554, 0.1166
555, 0.1164
556, 0.1162
557, 0.1159
558, 0.1156
559, 0.1153
560, 0.1149
561, 0.1145
562, 0.1142
563, 0.1137
564, 0.1132
565, 0.1127
566, 0.1122
567, 0.1117
568, 0.1112
569, 0.1107
570, 0.11
571, 0.1095
572, 0.109
573, 0.1085
574, 0.1079
575, 0.1074
576, 0.1068
577, 0.1063
578, 0.1058
579, 0.1053
580, 0.1049
581, 0.1044
582, 0.104
583, 0.1036
584, 0.1032
585, 0.1029
586, 0.1027
587, 0.1024
588, 0.1022
589, 0.102
590, 0.1019
591, 0.1019
592, 0.1019
593, 0.1019
594, 0.102
595, 0.1021
596, 0.1023
597, 0.1025
598, 0.1028
599, 0.103
600, 0.1032
601, 0.1035
602, 0.1038
603, 0.1041
604, 0.1045
605, 0.1048
606, 0.1051
607, 0.1054
608, 0.1058
609, 0.1061
610, 0.1065
611, 0.1069
612, 0.1072
613, 0.1075
614, 0.1079
615, 0.1082
616, 0.1086
617, 0.1089
618, 0.1092
619, 0.1095
620, 0.1098
621, 0.1101
622, 0.1103
623, 0.1105
624, 0.1106
625, 0.1108
626, 0.1109
627, 0.111
628, 0.1112
629, 0.1112
630, 0.1112
631, 0.1111
632, 0.1112
633, 0.1112
634, 0.1112
635, 0.111
636, 0.111
637, 0.111
638, 0.1109
639, 0.1109
640, 0.1108
641, 0.1108
642, 0.1107
643, 0.1107
644, 0.1108
645, 0.1109
646, 0.1108
647, 0.111
648, 0.1111
649, 0.1113
650, 0.1114
651, 0.1116
652, 0.1119
653, 0.1122
654, 0.1125
655, 0.1129
656, 0.1133
657, 0.1138
658, 0.1142
659, 0.1148
660, 0.1154
661, 0.1161
662, 0.1167
663, 0.1174
664, 0.1182
665, 0.1191
666, 0.1201
667, 0.121
668, 0.1221
669, 0.1232
670, 0.1244
671, 0.1257
672, 0.127
673, 0.1284
674, 0.1298
675, 0.1312
676, 0.1328
677, 0.1345
678, 0.1362
679, 0.138
680, 0.1397
681, 0.1415
682, 0.1432
683, 0.1451
684, 0.1468
685, 0.1487
686, 0.1506
687, 0.1524
688, 0.1541
689, 0.156
690, 0.1578
691, 0.1595
692, 0.161
693, 0.1626
694, 0.1642
695, 0.1656
696, 0.1671
697, 0.1685
698, 0.1699
699, 0.1711
700, 0.1723


