# "wavelength [nm]", "intensity/spectrum"
850, 35.8738
849, 35.95
848, 35.9806
847, 36.0857
846, 36.1195
845, 36.1754
844, 36.2825
843, 36.3146
842, 36.4265
841, 36.4865
840, 36.5762
839, 36.6538
838, 36.6955
837, 36.7762
836, 36.86
835, 36.948
834, 37.019
833, 37.0978
832, 37.1892
831, 37.2299
830, 37.3317
829, 37.4179
828, 37.4787
827, 37.5635
826, 37.6599
825, 37.7403
824, 37.8003
823, 37.8844
822, 37.9517
821, 38.0546
820, 38.1299
819, 38.192
818, 38.2705
817, 38.3622
816, 38.4186
815, 38.5236
814, 38.5848
813, 38.6695
812, 38.7675
811, 38.8405
810, 38.9088
809, 39.0011
808, 39.0609
807, 39.1568
806, 39.2381
805, 39.3082
804, 39.3824
803, 39.4643
802, 39.5303
801, 39.6302
800, 39.6988
799, 39.7655
798, 39.854
797, 39.9447
796, 40.0085
795, 40.0866
794, 40.1744
793, 40.2327
792, 40.3179
791, 40.4108
790, 40.484
789, 40.5742
788, 40.6412
787, 40.7221
786, 40.8051
785, 40.9024
784, 40.9467
783, 41.0507
782, 41.1017
781, 41.1654
780, 41.2611
779, 41.3378
778, 41.3904
777, 41.478
776, 41.5547
775, 41.6373
774, 41.7171
773, 41.8014
772, 41.8611
771, 41.9337
770, 42.0108
769, 42.0684
768, 42.1541
767, 42.25
766, 42.3113
765, 42.3918
764, 42.4555
763, 42.5136
762, 42.6071
761, 42.6752
760, 42.7175
759, 42.7962
758, 42.876
757, 42.9349
756, 43.0034
755, 43.0881
754, 43.14
753, 43.2095
752, 43.2657
751, 43.3234
750, 43.3919
749, 43.4449
748, 43.4894
747, 43.5699
746, 43.6131
745, 43.6687
744, 43.7389
743, 43.7975
742, 43.8312
741, 43.9017
740, 43.9397
739, 43.9853
738, 44.0488
737, 44.0953
736, 44.1222
735, 44.1825
734, 44.2267
733, 44.2602
732, 44.3012
731, 44.3332
730, 44.358
729, 44.4081
728, 44.4405
727, 44.4689
726, 44.4939
725, 44.5298
724, 44.5278
723, 44.5589
722, 44.5748
721, 44.5667
720, 44.5792
719, 44.578
718, 44.5809
717, 44.59
716, 44.5994
715, 44.5714
714, 44.5672
713, 44.5364
712, 44.517
711, 44.4918
710, 44.4743
709, 44.4308
708, 44.3809
707, 44.329
706, 44.2576
705, 44.2253
704, 44.1552
703, 44.0742
702, 44.0081
701, 43.9125
700, 43.8233
699, 43.741
698, 43.64
697, 43.5327
696, 43.4154
695, 43.2909
694, 43.1458
693, 43.0168
692, 42.8631
691, 42.6909
690, 42.5537
689, 42.3868
688, 42.214
687, 42.0282
686, 41.8738
685, 41.7103
684, 41.5132
683, 41.3292
682, 41.1224
681, 40.9271
680, 40.7543
679, 40.5726
678, 40.3682
677, 40.1898
676, 39.9955
675, 39.8119
674, 39.656
673, 39.5005
672, 39.3333
671, 39.1737
670, 39.0196
669, 38.882
668, 38.7738
667, 38.6351
666, 38.5092
665, 38.4029
664, 38.2862
663, 38.1944
662, 38.1216
661, 38.045
660, 37.9654
659, 37.9055
658, 37.8295
657, 37.7638
656, 37.7241
655, 37.6732
654, 37.6212
653, 37.59
652, 37.5582
651, 37.534
650, 37.5291
649, 37.5082
648, 37.484
647, 37.4812
646, 37.4699
645, 37.4726
644, 37.4884
643, 37.4858
642, 37.4734
641, 37.4944
640, 37.5061
639, 37.5276
638, 37.56
637, 37.5563
636, 37.561
635, 37.581
634, 37.5838
633, 37.5963
632, 37.6239
631, 37.6348
630, 37.6404
629, 37.6465
628, 37.6356
627, 37.6391
626, 37.6503
625, 37.6293
624, 37.6144
623, 37.6046
622, 37.5755
621, 37.5583
620, 37.5408
619, 37.5054
618, 37.4647
617, 37.4355
616, 37.3807
615, 37.3408
614, 37.3063
613, 37.2573
612, 37.2125
611, 37.1752
610, 37.121
609, 37.0639
608, 37.0347
607, 36.989
606, 36.9358
605, 36.889
604, 36.8362
603, 36.7947
602, 36.7756
601, 36.7242
600, 36.6832
599, 36.646
598, 36.6051
597, 36.5843
596, 36.5572
595, 36.523
594, 36.5043
593, 36.4932
592, 36.4851
591, 36.4774
590, 36.508
589, 36.5068
588, 36.5168
587, 36.556
586, 36.5718
585, 36.6225
584, 36.669
583, 36.7043
582, 36.7593
581, 36.8209
580, 36.8793
579, 36.9498
578, 37.0296
577, 37.0866
576, 37.165
575, 37.2417
574, 37.3146
573, 37.3901
572, 37.4769
571, 37.546
570, 37.6093
569, 37.6976
568, 37.7682
567, 37.8399
566, 37.936
565, 37.9838
564, 38.059
563, 38.1278
562, 38.1713
561, 38.2858
560, 38.3313
559, 38.395
558, 38.4562
557, 38.4919
556, 38.534
555, 38.5597
554, 38.5724
553, 38.6079
552, 38.6348
551, 38.6392
550, 38.6574
549, 38.6689
548, 38.6512
547, 38.6474
546, 38.6705
545, 38.6262
544, 38.6093
543, 38.5859
542, 38.5254
541, 38.5116
540, 38.4822
539, 38.4436
538, 38.3906
537, 38.3411
536, 38.2755
535, 38.2157
534, 38.1719
533, 38.1086
532, 38.0371
531, 37.9682
530, 37.8861
529, 37.8109
528, 37.782
527, 37.6899
526, 37.6426
525, 37.573
524, 37.4917
523, 37.4497
522, 37.4014
521, 37.3451
520, 37.289
519, 37.2532
518, 37.1808
517, 37.1535
516, 37.1238
515, 37.0688
514, 37.0512
513, 37.0041
512, 36.9754
511, 36.9428
510, 36.9644
509, 36.9322
508, 36.9263
507, 36.9115
506, 36.9062
505, 36.9502
504, 36.9758
503, 36.9408
502, 36.9756
501, 36.9872
500, 37.0047
499, 37.0471
498, 37.118
497, 37.1264
496, 37.1846
495, 37.2185
494, 37.2316
493, 37.3052
492, 37.3583
491, 37.3938
490, 37.4678
489, 37.5017
488, 37.5601
487, 37.6276
486, 37.7016
485, 37.7455
484, 37.8263
483, 37.8798
482, 37.9465
481, 37.9996
480, 38.108
479, 38.1426
478, 38.214
477, 38.2907
476, 38.2974
475, 38.38
474, 38.4472
473, 38.4956
472, 38.5443
471, 38.5739
470, 38.6051
469, 38.6477
468, 38.7087
467, 38.6896
466, 38.7357
465, 38.7164
464, 38.6987
463, 38.7063
462, 38.6999
461, 38.6578
460, 38.5882
459, 38.5565
458, 38.4316
457, 38.3623
456, 38.2658
455, 38.1252
454, 38.0058
453, 37.8652
452, 37.6931
451, 37.5441
450, 37.3853
449, 37.2127
448, 37.0211
447, 36.8736
446, 36.6658
445, 36.544
444, 36.4076
443, 36.2968
442, 36.1945
441, 36.1304
440, 36.0723
439, 36.051
438, 36.0994
437, 36.0882
436, 36.1568
435, 36.1807
434, 36.2152
433, 36.2519
432, 36.2799
431, 36.2254
430, 36.2325
429, 36.188
428, 36.1059
427, 36.0403
426, 35.9575
425, 35.8255
424, 35.7166
423, 35.6014
422, 35.4592
421, 35.3502
420, 35.2247
419, 35.0982
418, 34.9759
417, 34.8827
416, 34.7895
415, 34.7117
414, 34.6876
413, 34.6059
412, 34.5912
411, 34.5817
410, 34.56
409, 34.6002
408, 34.6063
407, 34.6115
406, 34.6041
405, 34.5943
404, 34.5705
403, 34.5206
402, 34.45
401, 34.3026
400, 34.1531
399, 33.955
398, 33.6913
397, 33.4105
396, 33.0828
395, 32.6819
394, 32.2697
393, 31.7973
392, 31.2812
391, 30.7072
390, 30.0673
389, 29.3564
388, 28.5845
387, 27.7576
386, 26.8487
385, 25.9243
384, 24.9564
383, 23.9529
382, 22.9779
381, 22.0208
380, 21.1602
379, 20.416
378, 19.8009
377, 19.5343
376, 19.5144
375, 19.7003
374, 20.0063
373, 20.3439
372, 20.6111
371, 20.7473
370, 20.7251
369, 20.5354
368, 20.1751
367, 19.7078
366, 19.1442
365, 18.5084
364, 17.8478
363, 17.1555
362, 16.4179
361, 15.6725
360, 14.8911
359, 14.0974
358, 13.3011
357, 12.5182
356, 11.722
355, 10.9489
354, 10.1944
353, 9.44674
352, 8.71657
351, 8.01062
350, 7.30994
349, 6.6273
348, 5.9679
347, 5.33492
346, 4.7437
345, 4.19899
344, 3.68436
343, 3.21301
342, 2.77578
341, 2.3723
340, 2.00383
339, 1.67453
338, 1.37867
337, 1.12049
336, 0.899829
335, 0.712145
334, 0.556358
333, 0.430961
332, 0.327068
331, 0.243961
330, 0.176598
329, 0.122808
328, 0.082853
327, 0.058426
326, 0.040098
325, 0.026838
324, 0.016627
323, 0.008209
322, 0.004212
321, 0.004001
320, 0.002632
319, 0.002631
318, 0.00253
317, 0.001796
316, -0.000422
315, -0.000211
314, 0.002536
313, 0.000422
312, 0.00338
311, 0.001479
310, -0.000317
309, 0.000317
308, 0.001691
307, -0.000423
306, 0.002853
305, 0.002325
304, 0.00074
303, 0.00074
302, 0.00148
301, 0.000951
300, 0.002959
299, 0.001374
298, -0.00074
297, 0.000423
296, 0.000951
295, 0.000634
294, 0.003488
293, 0.002114
292, -0.000106
291, 0.001797
290, 0.002325
289, 0.001796
288, 0.003063
287, 0.000951
286, -0.000634
285, 0.000423
284, 0.001162
283, 0.001162
282, 0.002429
281, 0
280, -0.001479
279, 0.000317
278, 0.001267
277, 0.001478
276, 0.003166
275, 0.002005
274, 0.000422
273, 0.001793
272, 0.002109
271, 0.002529
270, 0.003687
269, 0.00179
268, 0.000316
267, 0.001368
266, 0.001683
265, 0.002943
264, 0.003466
263, 0.001469
262, 0.001154
261, 0.001783
260, 0.001153
259, 0.002201
258, 0.002724
257, 0.000209
256, 0
255, 0.001466
254, 0.001675
253, 0.002931
252, 0.004186
251, 0.00272
250, 0.000732
249, 0.002406
248, 0.002404
247, 0.002298
246, 0.003861
245, 0.00146
244, -0.000521
243, 0.001041
242, 0.001143
241, 0.002283
240, 0.00373
239, 0.001344
238, 0
237, 0.002165
236, 0.003189
235, 0.003183
234, 0.003382
233, 0.001944
232, 0.000613
231, 0.002041
230, 0.001019
229, 0.002443
228, 0.004374
227, 0.003558
226, 0.000305
225, 0.001016
224, 0.002031
223, 0.003452
222, 0.004366
221, 0.002944
220, 0.001421
219, 0.002234
218, 0.001523
217, 0.003249
216, 0.003756
215, 0.002132
214, 0.001015
213, 0.003248
212, 0.003247
211, 0.003752
210, 0.003649
209, 0.001519
208, -0.001114
207, 0.00344
206, 0.002728
205, 0.003429
204, 0.004731
203, 0.003415
202, 0.000901
201, 0.002994
200, 0.002582


