# "wavelength [nm]", "intensity/spectrum"
306.869, 0.197436
309.487, 0.199002
312.104, 0.202148
314.43, 0.203715
316.175, 0.205286
318.793, 0.206852
321.118, 0.211579
323.739, 0.208406
325.772, 0.214714
328.394, 0.209961
330.722, 0.209949
333.05, 0.208357
335.959, 0.209921
337.992, 0.217809
340.022, 0.228857
342.052, 0.241485
343.499, 0.254115
345.238, 0.266744
346.685, 0.279375
347.841, 0.293587
349.287, 0.307797
350.443, 0.322009
351.308, 0.336223
352.171, 0.352016
353.327, 0.366228
354.192, 0.380441
355.056, 0.396235
355.919, 0.412028
356.784, 0.426241
357.648, 0.442035
358.512, 0.456248
359.085, 0.472043
359.949, 0.487836
360.523, 0.502051
361.386, 0.517844
361.959, 0.533639
362.824, 0.547852
363.397, 0.563647
363.969, 0.579442
364.834, 0.593655
365.698, 0.609449
366.27, 0.625243
367.135, 0.639457
367.708, 0.655252
368.281, 0.671046
369.144, 0.68684
369.718, 0.701055
370.582, 0.716848
371.155, 0.732643
372.019, 0.746856
372.883, 0.762649
373.748, 0.776863
374.903, 0.791075
375.768, 0.805288
376.632, 0.821081
377.787, 0.835293
378.651, 0.851087
379.807, 0.865299
380.962, 0.87951
382.409, 0.893721
383.857, 0.906351
385.012, 0.920563
386.168, 0.934775
387.906, 0.948984
389.352, 0.963195
390.509, 0.975827
391.663, 0.991618
392.829, 0.988453
393.698, 0.994767
395.15, 1.00108
395.735, 0.994757
398.647, 0.991582
400.108, 0.980515
401.573, 0.96313
402.158, 0.958388
402.747, 0.945746
403.92, 0.931522
404.511, 0.915721
405.392, 0.901499
406.565, 0.885695
407.446, 0.871472
408.618, 0.857248
409.21, 0.841447
410.092, 0.825645
410.973, 0.811422
412.145, 0.797198
413.322, 0.775075
414.204, 0.759272
415.085, 0.74505
415.676, 0.729249
416.559, 0.713446
417.149, 0.699225
417.74, 0.683424
418.622, 0.667622
419.212, 0.653401
419.224, 0.632863
420.1, 0.62812
420.982, 0.612317
421.572, 0.598096
422.455, 0.582294
422.755, 0.566494
423.346, 0.550693
423.936, 0.536472
424.527, 0.520671
425.118, 0.50487
425.71, 0.489069
426.301, 0.473269
426.892, 0.457468
427.482, 0.443247
428.073, 0.427446
428.955, 0.411643
429.547, 0.395842
430.137, 0.381621
431.018, 0.367399
431.609, 0.351598
432.2, 0.335797
433.082, 0.321574
433.673, 0.305773
434.554, 0.291551
435.436, 0.275748
436.317, 0.261525
437.489, 0.247301
439.244, 0.233074
441.287, 0.222005
443.908, 0.217252
446.816, 0.221976
449.139, 0.229862
451.464, 0.234589
453.787, 0.242476
456.109, 0.251943
458.725, 0.258248
460.465, 0.267717
462.787, 0.277184
465.401, 0.286649
467.723, 0.296115
469.755, 0.304003
472.37, 0.310309
474.697, 0.311876
477.318, 0.308703
479.358, 0.302373
481.403, 0.289724
483.156, 0.277077
484.618, 0.264431
485.79, 0.250206
487.544, 0.237559
488.716, 0.223335
490.474, 0.202788
491.646, 0.188564
492.818, 0.17434
493.99, 0.160116
495.456, 0.141151
496.919, 0.126925
498.382, 0.114279
499.845, 0.100053
501.599, 0.0858262
503.352, 0.0731788



