# "wavelength [nm]", "intensity/spectrum"
469.628, 0.0228034
475.151, 0.032253
480.378, 0.0511828
483.561, 0.0811819
485.871, 0.111186
487.601, 0.139612
489.034, 0.17594
490.474, 0.202788
491.616, 0.239117
492.178, 0.27387
493.323, 0.307039
493.887, 0.337052
494.449, 0.371804
495.012, 0.404976
496.155, 0.439725
496.429, 0.46974
497.282, 0.502911
497.844, 0.537663
498.407, 0.570835
498.97, 0.604008
499.239, 0.640341
499.514, 0.668776
500.076, 0.703528
500.348, 0.735122
500.908, 0.773034
501.742, 0.83938
501.764, 0.803045
502.6, 0.866232
503.158, 0.907303
504.597, 0.934152
505.157, 0.972063
506.02, 0.989436
507.467, 1.00207
509.232, 0.968882
510.418, 0.932541
511.6, 0.900939
512.203, 0.864601
513.965, 0.836156
513.985, 0.802981
515.169, 0.768219
515.771, 0.733461
516.079, 0.703443
517.263, 0.670262
518.157, 0.633922
519.05, 0.599162
519.939, 0.570722
521.413, 0.539118
522.597, 0.504357
524.362, 0.471172
525.834, 0.442729
528.181, 0.409541
530.818, 0.377931
533.743, 0.35106
537.54, 0.327343
540.162, 0.32101
541.331, 0.313105
546.005, 0.281485
549.222, 0.253032
551.858, 0.224582
555.075, 0.196129
557.711, 0.166099
561.217, 0.142384
566.47, 0.1155
570.554, 0.0981013
574.64, 0.0775427
580.174, 0.0680349
586.873, 0.0569412
592.116, 0.0474349
597.068, 0.0379301
599.688, 0.0363366



