# "wavelength [nm]", "intensity/spectrum"
308.219, 0.200152
317.466, 0.205879
326.712, 0.211606
336.986, 0.211796
344.178, 0.250818
349.315, 0.300913
352.397, 0.35097
355.479, 0.401027
358.562, 0.45664
361.644, 0.506697
364.726, 0.56231
366.781, 0.617903
369.863, 0.673516
371.918, 0.723554
375, 0.779167
378.082, 0.829224
382.192, 0.884855
387.329, 0.929395
392.466, 0.97949
400.685, 0.985198
404.795, 0.935274
407.877, 0.879775
410.959, 0.829833
414.041, 0.774334
417.123, 0.724391
419.178, 0.668874
421.233, 0.613356
423.288, 0.557839
426.37, 0.507896
428.425, 0.452378
430.479, 0.396861
432.534, 0.341343
435.616, 0.2914
439.726, 0.241476
447.945, 0.230518
457.192, 0.258467
465.411, 0.286396
473.63, 0.314326
481.849, 0.292256
486.986, 0.247907
492.123, 0.198002
496.233, 0.148078
501.37, 0.103729


